 20000.00       4.214333       0.438204       0.000882       3.775247
 20048.88       3.282024       0.341263       0.000687       2.940074
 20097.75       2.522328       0.262270       0.000528       2.259530
 20146.63       1.912972       0.198910       0.000401       1.713662
 20195.50       1.431735       0.148871       0.000300       1.282565
 20244.38       1.057460       0.109954       0.000221       0.947285
 20293.26       0.770748       0.080142       0.000161       0.690444
 20342.13       0.554380       0.057644       0.000116       0.496620
 20391.01       0.393505       0.040916       0.000082       0.352506
 20439.88       0.275638       0.028661       0.000058       0.246920
 20488.76       0.190536       0.019812       0.000040       0.170684
 20537.63       0.129975       0.013515       0.000027       0.116433
 20586.51       0.087496       0.009098       0.000018       0.078380
 20635.39       0.058126       0.006044       0.000012       0.052070
 20684.26       0.038106       0.003962       0.000008       0.034136
 20733.14       0.024653       0.002563       0.000005       0.022084
 20782.01       0.015739       0.001637       0.000003       0.014099
 20830.89       0.009916       0.001031       0.000002       0.008883
 20879.77       0.006165       0.000641       0.000001       0.005523
 20928.64       0.003783       0.000393       0.000001       0.003389
 20977.52       0.002291       0.000238       0.000000       0.002052
 21026.39       0.001369       0.000142       0.000000       0.001226
 21075.27       0.000807       0.000084       0.000000       0.000723
 21124.14       0.000470       0.000049       0.000000       0.000421
 21173.02       0.000270       0.000028       0.000000       0.000242
 21221.90       0.000153       0.000016       0.000000       0.000137
 21270.77       0.000085       0.000009       0.000000       0.000077
 21319.65       0.000047       0.000005       0.000000       0.000042
 21368.52       0.000026       0.000003       0.000000       0.000023
 21417.40       0.000014       0.000001       0.000000       0.000012
 21466.28       0.000007       0.000001       0.000000       0.000007
 21515.15       0.000000       0.000000       0.000000       0.000000
 21564.03       0.000000       0.000000       0.000000       0.000000
 21612.90       0.000000       0.000000       0.000000       0.000000
 21661.78       0.000000       0.000000       0.000000       0.000000
 21710.65       0.000000       0.000000       0.000000       0.000000
 21759.53       0.000000       0.000000       0.000000       0.000000
 21808.41       0.000000       0.000000       0.000000       0.000000
 21857.28       0.000000       0.000000       0.000000       0.000000
 21906.16       0.000000       0.000000       0.000000       0.000000
 21955.03       0.000000       0.000000       0.000000       0.000000
 22003.91       0.000000       0.000000       0.000000       0.000000
 22052.79       0.000000       0.000000       0.000000       0.000000
 22101.66       0.000000       0.000000       0.000000       0.000000
 22150.54       0.000000       0.000000       0.000000       0.000000
 22199.41       0.000000       0.000000       0.000000       0.000000
 22248.29       0.000000       0.000000       0.000000       0.000000
 22297.17       0.000000       0.000000       0.000000       0.000000
 22346.04       0.000000       0.000000       0.000000       0.000000
 22394.92       0.000000       0.000000       0.000000       0.000000
 22443.79       0.000000       0.000000       0.000000       0.000000
 22492.67       0.000000       0.000000       0.000000       0.000000
 22541.54       0.000000       0.000000       0.000000       0.000000
 22590.42       0.000000       0.000000       0.000000       0.000000
 22639.30       0.000000       0.000000       0.000000       0.000000
 22688.17       0.000000       0.000000       0.000000       0.000000
 22737.05       0.000000       0.000000       0.000000       0.000000
 22785.92       0.000000       0.000000       0.000000       0.000000
 22834.80       0.000000       0.000000       0.000000       0.000000
 22883.68       0.000000       0.000000       0.000000       0.000000
 22932.55       0.000000       0.000000       0.000000       0.000000
 22981.43       0.000000       0.000000       0.000000       0.000000
 23030.30       0.000000       0.000000       0.000000       0.000000
 23079.18       0.000000       0.000000       0.000000       0.000000
 23128.05       0.000000       0.000000       0.000000       0.000000
 23176.93       0.000000       0.000000       0.000000       0.000000
 23225.81       0.000000       0.000000       0.000000       0.000000
 23274.68       0.000000       0.000000       0.000000       0.000000
 23323.56       0.000000       0.000000       0.000000       0.000000
 23372.43       0.000000       0.000000       0.000000       0.000000
 23421.31       0.000000       0.000000       0.000000       0.000000
 23470.19       0.000000       0.000000       0.000000       0.000000
 23519.06       0.000000       0.000000       0.000000       0.000000
 23567.94       0.000000       0.000000       0.000000       0.000000
 23616.81       0.000000       0.000000       0.000000       0.000000
 23665.69       0.000000       0.000000       0.000000       0.000000
 23714.57       0.000000       0.000000       0.000000       0.000000
 23763.44       0.000000       0.000000       0.000000       0.000000
 23812.32       0.000000       0.000000       0.000000       0.000000
 23861.19       0.000000       0.000000       0.000000       0.000000
 23910.07       0.000000       0.000000       0.000000       0.000000
 23958.94       0.000000       0.000000       0.000000       0.000000
 24007.82       0.000000       0.000000       0.000000       0.000000
 24056.70       0.000000       0.000000       0.000000       0.000000
 24105.57       0.000000       0.000000       0.000000       0.000000
 24154.45       0.000000       0.000000       0.000000       0.000000
 24203.32       0.000000       0.000000       0.000000       0.000000
 24252.20       0.000000       0.000000       0.000000       0.000000
 24301.08       0.000000       0.000000       0.000000       0.000000
 24349.95       0.000000       0.000000       0.000000       0.000000
 24398.83       0.000000       0.000000       0.000000       0.000000
 24447.70       0.000000       0.000000       0.000000       0.000000
 24496.58       0.000000       0.000000       0.000000       0.000000
 24545.45       0.000000       0.000000       0.000000       0.000000
 24594.33       0.000000       0.000000       0.000000       0.000000
 24643.21       0.000000       0.000000       0.000000       0.000000
 24692.08       0.000000       0.000000       0.000000       0.000000
 24740.96       0.000000       0.000000       0.000000       0.000000
 24789.83       0.000000       0.000000       0.000000       0.000000
 24838.71       0.000000       0.000000       0.000000       0.000000
 24887.59       0.000000       0.000000       0.000000       0.000000
 24936.46       0.000000       0.000000       0.000000       0.000000
 24985.34       0.000000       0.000000       0.000000       0.000000
 25034.21       0.000000       0.000000       0.000000       0.000000
 25083.09       0.000000       0.000000       0.000000       0.000000
 25131.96       0.000000       0.000000       0.000000       0.000000
 25180.84       0.000000       0.000000       0.000000       0.000000
 25229.72       0.000000       0.000000       0.000000       0.000000
 25278.59       0.000000       0.000000       0.000000       0.000000
 25327.47       0.000000       0.000000       0.000000       0.000000
 25376.34       0.000000       0.000000       0.000000       0.000000
 25425.22       0.000000       0.000000       0.000000       0.000000
 25474.10       0.000000       0.000000       0.000000       0.000000
 25522.97       0.000000       0.000000       0.000000       0.000000
 25571.85       0.000000       0.000000       0.000000       0.000000
 25620.72       0.000000       0.000000       0.000000       0.000000
 25669.60       0.000000       0.000000       0.000000       0.000000
 25718.48       0.000000       0.000000       0.000000       0.000000
 25767.35       0.000000       0.000000       0.000000       0.000000
 25816.23       0.000000       0.000000       0.000000       0.000000
 25865.10       0.000000       0.000000       0.000000       0.000000
 25913.98       0.000000       0.000000       0.000000       0.000000
 25962.85       0.000000       0.000000       0.000000       0.000000
 26011.73       0.000000       0.000000       0.000000       0.000000
 26060.61       0.000000       0.000000       0.000000       0.000000
 26109.48       0.000000       0.000000       0.000000       0.000000
 26158.36       0.000000       0.000000       0.000000       0.000000
 26207.23       0.000000       0.000000       0.000000       0.000000
 26256.11       0.000000       0.000000       0.000000       0.000000
 26304.99       0.000000       0.000000       0.000000       0.000000
 26353.86       0.000000       0.000000       0.000000       0.000000
 26402.74       0.000000       0.000000       0.000000       0.000000
 26451.61       0.000000       0.000000       0.000000       0.000000
 26500.49       0.000000       0.000000       0.000000       0.000000
 26549.36       0.000000       0.000000       0.000000       0.000000
 26598.24       0.000000       0.000000       0.000000       0.000000
 26647.12       0.000000       0.000000       0.000000       0.000000
 26695.99       0.000000       0.000000       0.000000       0.000000
 26744.87       0.000000       0.000000       0.000000       0.000000
 26793.74       0.000000       0.000000       0.000000       0.000000
 26842.62       0.000000       0.000000       0.000000       0.000000
 26891.50       0.000000       0.000000       0.000000       0.000000
 26940.37       0.000000       0.000000       0.000000       0.000000
 26989.25       0.037246       0.002118       0.000009       0.035119
 27038.12       0.070696       0.004021       0.000016       0.066659
 27087.00       0.132421       0.007531       0.000030       0.124859
 27135.87       0.244775       0.013921       0.000056       0.230797
 27184.75       0.446501       0.025395       0.000103       0.421004
 27233.63       0.803758       0.045713       0.000185       0.757860
 27282.50       1.427827       0.081207       0.000329       1.346291
 27331.38       2.509109       0.145283       0.000577       2.363249
 27380.25       4.341777       0.251839       0.000999       4.088938
 27429.13       7.414344       0.430887       0.001706       6.981751
 27478.01      12.495001       0.727684       0.002875      11.764443
 27526.88      20.780659       1.213023       0.004781      19.562856
 27575.76      34.106961       1.995961       0.007847      32.103152
 27624.63      55.244457       3.241919       0.012710      51.989828
 27673.51      88.307557       5.197928       0.020316      83.089314
 27722.39     139.306734       8.227128       0.032047     131.047558
 27771.26     216.876847      12.854916       0.049889     203.972041
 27820.14     333.213856      19.829292       0.076646     313.307918
 27869.01     505.247089      30.197938       0.116208     474.932943
 27917.89     756.062721      45.404181       0.173881     710.484659
 27966.76    1116.574284      67.403190       0.256765    1048.914328
 28015.64    1627.406359      98.798413       0.374190    1528.233756
 28064.52    2340.917216     142.996235       0.538172    2197.382808
 28113.39    3323.235535     204.374146       0.763883    3118.097506
 28162.27    4656.127789     288.454309       1.070067    4366.603413
 28211.14    6438.450899     402.070563       1.479367    6034.900968
 28260.02    8786.886596     553.512696       2.018484    8231.355416
 28308.90   11835.609067     752.627833       2.718080   11080.263155
 28357.77   15734.517468    1010.855451       3.612352   14720.049665
 28406.65   20645.681809    1341.170492       4.738195   19299.773122
 28455.52   26737.715663    1757.908970       6.133875   24973.672817
 28504.40   34177.909936    2276.452999       7.837194   31893.619743
 28553.27   43122.140559    2912.757667       9.883139   40199.499753
 28602.15   53702.793802    3682.711024      12.301079   50007.781698
 28651.03   66015.220730    4601.330281      15.111632   61398.778817
 28699.90   80103.512485    5681.811867      18.323383   74403.377234
 28748.78   95946.647465    6934.469049      21.929712   88990.248704
 28797.65  113446.261919    8365.607271      25.906010  105054.748638
 28846.53  132417.398160    9976.402498      30.207618  122410.788044
 28895.41  152583.556387   11761.859994      34.768776  140786.927618
 28944.28  173577.195409   13709.938423      39.502865  159827.754121
 28993.16  194946.490176   15800.925588      44.304120  179101.260469
 29042.03  216168.676647   18007.146449      49.050876  198112.479322
 29090.91  236669.735441   20293.071003      53.610294  216323.054144
 29139.78  255849.542453   22615.869260      57.844341  233175.828852
 29188.66  273111.017322   24926.434012      61.616672  248122.966638
 29237.54  287891.303676   27170.860829      64.799943  260655.642903
 29286.41  299692.685947   29292.340878      67.283008  270333.062060
 29335.29  308110.836913   31233.388361      68.977419  276808.471133
 29384.16  312858.123123   32938.293316      69.822708  279850.007098
 29433.04  313780.066506   34355.665067      69.790000  279354.611439
 29481.92  310863.633655   35440.914414      68.883643  275353.835598
 29530.79  304236.736538   36158.515857      67.140753  268011.079928
 29579.67  294159.099016   36483.896300      64.628696  257610.574020
 29628.54  281005.384959   36404.814321      61.440775  244539.129863
 29677.42  265242.114019   35922.123765      57.690484  229262.299771
 29726.30  247400.344867   35049.855316      53.504835  212296.984716
 29775.17  228046.342394   33814.597012      49.017298  194182.728084
 29824.05  207752.453458   32254.205415      44.360887  175453.887157
 29872.92  187070.211973   30415.928836      39.661890  156614.621247
 29921.80  166507.319357   28354.067914      35.034621  138118.216822
 29970.67  146509.657570   26127.332502      30.577452  120351.747616
 30019.55  127448.953291   23796.073923      26.370255  103626.509112
 30068.43  109616.185356   21419.576050      22.473258   88174.136048
 30117.30   93220.365701   19053.577115      18.927174   74147.861412
 30166.18   78391.964022   16748.168045      15.754426   61628.041551
 30215.05   65190.008266   14546.175534      12.961190   50630.871543
 30263.93   53611.779738   12482.093294      10.539989   41119.146455
 30312.81   43604.021882   10581.577781       8.472563   33013.971538
 30361.68   35074.673992    8861.480130       6.732766   26206.461096
 30410.56   27904.298152    7330.348243       5.289315   20568.660595
 30459.43   21956.561147    5989.305065       4.108216   15963.147865
 30508.31   17087.337097    4833.192857       3.154813   12250.989427
 30557.18   13152.189898    3851.868729       2.395391    9297.925778
 30606.06   10012.162269    3031.543009       1.798352    6978.820909
 30654.94    7537.931566    2356.066653       1.334990    5180.529922
 30703.81    5612.488312    1808.094375       0.979927    3803.414010
 30752.69    4132.553061    1370.073277       0.711254    2761.768530
 30801.56    3008.975068    1025.029867       0.510471    1983.434730
 30850.44    2166.358583     757.149114       0.362268    1408.847201
 30899.32    1542.146189     552.156123       0.254210     989.735856
 30948.19    1085.360078     397.523251       0.176382     687.660445
 30997.07     755.167192     282.532931       0.121003     472.513259
 31045.94     519.397520     198.229509       0.082074     321.085937
 31094.82     353.109717     137.292886       0.055038     215.761793
 31143.70     237.267075      93.863557       0.036488     143.367030
 31192.57     157.560748      63.343910       0.023913      94.192925
 31241.45     103.396581      42.195105       0.015492      61.185984
 31290.32      67.046656      27.743411       0.009921      39.293325
 31339.20      42.956284      18.004877       0.006279      24.945128
 31388.07      27.190777      11.533088       0.003928      15.653761
 31436.95      17.003156       7.291542       0.002428       9.709185
 31485.83      10.503145       4.549937       0.001483       5.951725
 31534.70       6.408570       2.802191       0.000895       3.605484
 31583.58       3.862126       1.703301       0.000534       2.158291
 31632.45       2.298731       1.021837       0.000315       1.276579
 31681.33       1.351203       0.605012       0.000183       0.746007
 31730.21       0.784331       0.353537       0.000105       0.430689
 31779.08       0.449574       0.203887       0.000060       0.245628
 31827.96       0.237978       0.115108       0.000030       0.122840
 31876.83       0.133773       0.064705       0.000017       0.069051
 31925.71       0.074207       0.035893       0.000009       0.038304
 31974.58       0.040623       0.019649       0.000005       0.020969
 32023.46       0.021945       0.010615       0.000003       0.011328
 32072.34       0.011699       0.005659       0.000001       0.006039
 32121.21       0.006155       0.002977       0.000001       0.003177
 32170.09       0.000000       0.000000       0.000000       0.000000
 32218.96       0.000000       0.000000       0.000000       0.000000
 32267.84       0.000000       0.000000       0.000000       0.000000
 32316.72       0.000000       0.000000       0.000000       0.000000
 32365.59       0.000000       0.000000       0.000000       0.000000
 32414.47       0.000000       0.000000       0.000000       0.000000
 32463.34       0.000000       0.000000       0.000000       0.000000
 32512.22       0.000000       0.000000       0.000000       0.000000
 32561.09       0.000000       0.000000       0.000000       0.000000
 32609.97       0.000000       0.000000       0.000000       0.000000
 32658.85       0.000000       0.000000       0.000000       0.000000
 32707.72       0.000000       0.000000       0.000000       0.000000
 32756.60       0.000000       0.000000       0.000000       0.000000
 32805.47       0.000000       0.000000       0.000000       0.000000
 32854.35       0.000000       0.000000       0.000000       0.000000
 32903.23       0.000000       0.000000       0.000000       0.000000
 32952.10       0.000000       0.000000       0.000000       0.000000
 33000.98       0.000000       0.000000       0.000000       0.000000
 33049.85       0.000000       0.000000       0.000000       0.000000
 33098.73       0.000000       0.000000       0.000000       0.000000
 33147.61       0.000000       0.000000       0.000000       0.000000
 33196.48       0.000000       0.000000       0.000000       0.000000
 33245.36       0.000000       0.000000       0.000000       0.000000
 33294.23       0.000000       0.000000       0.000000       0.000000
 33343.11       0.000000       0.000000       0.000000       0.000000
 33391.98       0.000000       0.000000       0.000000       0.000000
 33440.86       0.000000       0.000000       0.000000       0.000000
 33489.74       0.000000       0.000000       0.000000       0.000000
 33538.61       0.000000       0.000000       0.000000       0.000000
 33587.49       0.000000       0.000000       0.000000       0.000000
 33636.36       0.000000       0.000000       0.000000       0.000000
 33685.24       0.000000       0.000000       0.000000       0.000000
 33734.12       0.000000       0.000000       0.000000       0.000000
 33782.99       0.000000       0.000000       0.000000       0.000000
 33831.87       0.000000       0.000000       0.000000       0.000000
 33880.74       0.000000       0.000000       0.000000       0.000000
 33929.62       0.000000       0.000000       0.000000       0.000000
 33978.49       0.000000       0.000000       0.000000       0.000000
 34027.37       0.000000       0.000000       0.000000       0.000000
 34076.25       0.000000       0.000000       0.000000       0.000000
 34125.12       0.000000       0.000000       0.000000       0.000000
 34174.00       0.000000       0.000000       0.000000       0.000000
 34222.87       0.000000       0.000000       0.000000       0.000000
 34271.75       0.000000       0.000000       0.000000       0.000000
 34320.63       0.000000       0.000000       0.000000       0.000000
 34369.50       0.000000       0.000000       0.000000       0.000000
 34418.38       0.000000       0.000000       0.000000       0.000000
 34467.25       0.000000       0.000000       0.000000       0.000000
 34516.13       0.000000       0.000000       0.000000       0.000000
 34565.00       0.000000       0.000000       0.000000       0.000000
 34613.88       0.000000       0.000000       0.000000       0.000000
 34662.76       0.000000       0.000000       0.000000       0.000000
 34711.63       0.000000       0.000000       0.000000       0.000000
 34760.51       0.000000       0.000000       0.000000       0.000000
 34809.38       0.000000       0.000000       0.000000       0.000000
 34858.26       0.000000       0.000000       0.000000       0.000000
 34907.14       0.000000       0.000000       0.000000       0.000000
 34956.01       0.000000       0.000000       0.000000       0.000000
 35004.89       0.000000       0.000000       0.000000       0.000000
 35053.76       0.000000       0.000000       0.000000       0.000000
 35102.64       0.000000       0.000000       0.000000       0.000000
 35151.52       0.000000       0.000000       0.000000       0.000000
 35200.39       0.000000       0.000000       0.000000       0.000000
 35249.27       0.000000       0.000000       0.000000       0.000000
 35298.14       0.000000       0.000000       0.000000       0.000000
 35347.02       0.000000       0.000000       0.000000       0.000000
 35395.89       0.000000       0.000000       0.000000       0.000000
 35444.77       0.000000       0.000000       0.000000       0.000000
 35493.65       0.000000       0.000000       0.000000       0.000000
 35542.52       0.000000       0.000000       0.000000       0.000000
 35591.40       0.000000       0.000000       0.000000       0.000000
 35640.27       0.000000       0.000000       0.000000       0.000000
 35689.15       0.000000       0.000000       0.000000       0.000000
 35738.03       0.000000       0.000000       0.000000       0.000000
 35786.90       0.000000       0.000000       0.000000       0.000000
 35835.78       0.000000       0.000000       0.000000       0.000000
 35884.65       0.000000       0.000000       0.000000       0.000000
 35933.53       0.000000       0.000000       0.000000       0.000000
 35982.40       0.000000       0.000000       0.000000       0.000000
 36031.28       0.000000       0.000000       0.000000       0.000000
 36080.16       0.000000       0.000000       0.000000       0.000000
 36129.03       0.000000       0.000000       0.000000       0.000000
 36177.91       0.000000       0.000000       0.000000       0.000000
 36226.78       0.000000       0.000000       0.000000       0.000000
 36275.66       0.000000       0.000000       0.000000       0.000000
 36324.54       0.000000       0.000000       0.000000       0.000000
 36373.41       0.000000       0.000000       0.000000       0.000000
 36422.29       0.000000       0.000000       0.000000       0.000000
 36471.16       0.000000       0.000000       0.000000       0.000000
 36520.04       0.000000       0.000000       0.000000       0.000000
 36568.91       0.000000       0.000000       0.000000       0.000000
 36617.79       0.000000       0.000000       0.000000       0.000000
 36666.67       0.000000       0.000000       0.000000       0.000000
 36715.54       0.000001       0.000000       0.000001       0.000000
 36764.42       0.000001       0.000000       0.000001       0.000000
 36813.29       0.000002       0.000000       0.000002       0.000000
 36862.17       0.000004       0.000000       0.000004       0.000000
 36911.05       0.000008       0.000000       0.000008       0.000000
 36959.92       0.000014       0.000000       0.000014       0.000000
 37008.80       0.000024       0.000000       0.000024       0.000000
 37057.67       0.000041       0.000000       0.000041       0.000000
 37106.55       0.000070       0.000000       0.000070       0.000000
 37155.43       0.000118       0.000000       0.000118       0.000000
 37204.30       0.000196       0.000000       0.000196       0.000000
 37253.18       0.000321       0.000000       0.000321       0.000000
 37302.05       0.000520       0.000000       0.000519       0.000001
 37350.93       0.000829       0.000000       0.000828       0.000001
 37399.80       0.001306       0.000000       0.001304       0.000001
 37448.68       0.002029       0.000000       0.002027       0.000002
 37497.56       0.003113       0.000000       0.003110       0.000003
 37546.43       0.004711       0.000000       0.004706       0.000005
 37595.31       0.007037       0.000000       0.007030       0.000007
 37644.18       0.010372       0.000000       0.010361       0.000010
 37693.06       0.015086       0.000000       0.015071       0.000015
 37741.94       0.021655       0.000000       0.021634       0.000021
 37790.81       0.030676       0.000000       0.030646       0.000030
 37839.69       0.042907       0.000000       0.042864       0.000042
 37888.56       0.059203       0.000000       0.059144       0.000058
 37937.44       0.080620       0.000000       0.080540       0.000079
 37986.31       0.108350       0.000000       0.108243       0.000107
 38035.19       0.143724       0.000001       0.143582       0.000141
 38084.07       0.188178       0.000003       0.187989       0.000186
 38132.94       0.243202       0.000006       0.242955       0.000242
 38181.82       0.310294       0.000010       0.309974       0.000310
 38230.69       0.390880       0.000018       0.390470       0.000393
 38279.57       0.486248       0.000031       0.485723       0.000493
 38328.45       0.597477       0.000055       0.596808       0.000614
 38377.32       0.725403       0.000096       0.724546       0.000761
 38426.20       0.870611       0.000166       0.869506       0.000940
 38475.07       1.033511       0.000285       1.032063       0.001162
 38523.95       1.214488       0.000483       1.212559       0.001446
 38572.83       1.414190       0.000810       1.411561       0.001818
 38621.70       1.633944       0.001342       1.630277       0.002325
 38670.58       1.876349       0.002195       1.871119       0.003036
 38719.45       2.146039       0.003544       2.138439       0.004056
 38768.33       2.450624       0.005649       2.439428       0.005547
 38817.20       2.801790       0.008888       2.785159       0.007742
 38866.08       3.216514       0.013805       3.191726       0.010982
 38914.96       3.718326       0.021163       3.681416       0.015748
 38963.83       4.338534       0.032018       4.283808       0.022708
 39012.71       5.117271       0.047810       5.036686       0.032775
 39061.58       6.104228       0.070456       5.986604       0.047168
 39110.46       7.358897       0.102469       7.188941       0.067487
 39159.34       8.950138       0.147074       8.707276       0.095788
 39208.21      10.954902       0.208329      10.611916       0.134657
 39257.09      13.455954       0.291223      12.977451       0.187280
 39305.96      16.538501       0.401759      15.879252       0.257489
 39354.84      20.285689       0.546975      19.388937       0.349777
 39403.71      24.773064       0.734901      23.568889       0.469274
 39452.59      30.062164       0.974426      28.466078       0.621660
 39501.47      36.193594       1.275049      34.105541       0.813005
 39550.34      43.180014       1.646500      40.483985       1.049529
 39599.22      50.999608       2.098229      47.564103       1.337276
 39648.09      59.590664       2.638757      55.270209       1.681698
 39696.97      68.847918       3.274923      63.485819       2.087176
 39745.85      78.621241       4.011040      72.053720       2.556481
 39794.72      88.717178       4.848047      80.778901       3.090230
 39843.60      98.903596       5.782692      89.434538       3.686366
 39892.47     108.917488       6.806851      97.770918       4.339720
 39941.35     118.475687       7.907059     105.526915       5.041714
 39990.22     127.287927       9.064334     112.443348       5.780245
 40039.10     135.071446      10.254364     118.277280       6.539802
 40087.98     141.566119      11.448092     122.816183       7.301843
 40136.85     146.548967      12.612721     125.890813       8.045433
 40185.73     149.846920      13.713095     127.385701       8.748124
 40234.60     151.346791      14.713397     127.246352       9.387042
 40283.48     151.001658      15.579051     125.482507       9.940100
 40332.36     148.833141      16.278688     122.167197      10.387255
 40381.23     144.929428      16.786031     117.431687      10.711710
 40430.11     139.439266      17.081526     111.456782      10.900959
 40478.98     132.562487      17.153597     104.461301      10.947589
 40527.86     124.537883      16.999396      96.688728      10.849758
 40576.74     115.629478      16.624992      88.393163      10.611323
 40625.61     106.112252      16.044972      79.825704      10.241577
 40674.49      96.258400      15.281498      71.222245       9.754656
 40723.36      86.325015      14.362906      62.793468       9.168642
 40772.24      76.543944      13.321957      54.717542       8.504444
 40821.11      67.114238      12.193913      47.135752       7.784574
 40869.99      58.197422      11.014566      40.150972       7.031884
 40918.87      49.915509       9.818406      33.828704       6.268399
 40967.74      42.351503       8.637018      28.200194       5.514290
 41016.62      35.551971       7.497837      23.267053       4.787081
 41065.49      29.534238       6.423876      19.006779       4.103584
 41114.37      24.281950       5.431461      15.378614       3.471874
 41163.25      19.763244       4.532580      12.329258       2.901407
 41212.12      15.929512       3.733851       9.798044       2.397617
 41261.00      12.722845       3.037487       7.721370       1.963988
 41309.87      10.081599       2.442192       6.036212       1.603195
 41358.75       7.945688       1.944252       4.682741       1.318696
 41407.62       6.261792       1.538777       3.606070       1.116944
 41456.50       4.988840       1.221126       2.757259       1.010455
 41505.38       4.104341       0.988525       2.093715       1.022101
 41554.25       3.612327       0.842015       1.579135       1.191177
 41603.13       3.553915       0.788855       1.183141       1.581919
 41652.00       4.021743       0.845615       0.880720       2.295407
 41700.88       5.179764       1.042220       0.651577       3.485967
 41749.76       7.290104       1.427281       0.479461       5.383362
 41798.63      10.748842       2.075061       0.351538       8.322244
 41847.51      16.132547       3.094441       0.257815      12.780291
 41896.38      24.257227       4.640224       0.190650      19.426353
 41945.26      36.250770       6.926970       0.144341      29.179459
 41994.13      53.639011      10.245424       0.114800      43.278787
 42043.01      78.444036      14.981271       0.099289      63.363476
 42091.89     113.291293      21.635555       0.096234      91.559505
 42140.76     161.519347      30.845618       0.105066     130.568663
 42189.64     227.282994      43.404765       0.126122     183.752107
 42238.51     315.636985      60.278232       0.160549     255.198205
 42287.39     432.584218      82.612369       0.210229     349.761620
 42336.27     585.069527     111.733445       0.277701     473.058381
 42385.14     780.898594     149.132153       0.366051     631.400391
 42434.02    1028.561896     196.429976       0.478791     831.653128
 42482.89    1336.946521     255.324156       0.619686    1081.002679
 42531.77    1714.924749     327.509111       0.792532    1386.623107
 42580.65    2170.817660     414.574001       1.000895    1755.242763
 42629.52    2711.744581     517.878487       1.247791    2192.618303
 42678.40    3342.884223     638.411615       1.535376    2702.937231
 42727.27    4066.689242     776.641830       1.864522    3288.182890
 42776.15    4882.111860     932.369071       2.234520    3947.508269
 42825.02    5783.910287    1104.592318       2.642757    4676.675212
 42873.90    6762.113425    1291.407360       3.084483    5467.621582
 42922.78    7801.721348    1489.949590       3.552696    6308.219062
 42971.65    8882.710286    1696.394948       4.038158    7182.277180
 43020.53    9980.392930    1906.028736       4.529578    8069.834617
 43069.40   11066.157864    2113.386822       5.013961    8947.757081
 43118.28   12108.578507    2312.467427       5.477129    9790.633951
 43167.16   13074.844773    2497.004533       5.904373   10571.935868
 43216.03   13932.434188    2660.787033       6.281208   11265.365947
 43264.91   14650.907895    2798.001724       6.594188   11846.311983
 43313.78   15203.695221    2903.574127       6.831691   12293.289403
 43362.66   15569.721737    2973.479412       6.984635   12589.257690
 43411.53   15734.741987    3004.996923       7.047059   12722.698005
 43460.41   15692.259448    2996.885878       7.016503   12688.357066
 43509.29   15443.950927    2949.466424       6.894174   12487.590328
 43558.16   14999.556737    2864.598669       6.684862   12128.273205
 43607.04   14376.246682    2745.561605       6.396631   11624.288445
 43655.91   13597.519377    2596.842903       6.040305   10994.636169
 43704.79   12691.733246    2423.858373       5.628790   10262.246083
 43753.67   11690.397105    2232.625500       5.176305    9452.595300
 43802.54   10626.363575    2029.418425       4.697572    8592.247578
 43851.42    9532.068555    1820.431723       4.207030    7707.429802
 43900.29    8437.945624    1611.477584       3.718146    6822.749894
 43949.17    7371.118050    1407.736011       3.242843    5960.139196
 43998.04    6354.437168    1213.571168       2.791092    5138.074908
 44046.92    5405.898559    1032.419876       2.370669    4371.108014
 44095.80    4538.431378     866.751381       1.987085    3669.692912
 44144.67    3760.025007     718.091531       1.643655    3040.289821
 44193.55    3074.133846     587.100088       1.341694    2485.692064
 44242.42    2480.286735     473.687107       1.080799    2005.518829
 44291.30    1974.822595     377.153429       0.859182    1596.809985
 44340.18    1551.677146     296.340927       0.674022    1254.662198
 44389.05    1203.155384     229.780032       0.521809     972.853543
 44437.93     920.638542     175.824753       0.398655     744.415134
 44486.80     695.190239     132.768431       0.300561     562.121247
 44535.68     518.042341      98.936538       0.223622     418.882181
 44584.56     380.955219      72.755474       0.164190     308.035556
 44633.43     276.458334      52.798516       0.118967     223.540851
 44682.31     197.985110      37.811581       0.085066     160.088463
 44731.18     139.920863      26.722374       0.060025     113.138463
 44780.06      97.584213      18.636843       0.041799      78.905571
 44828.93      67.162043      12.826754       0.028723      54.306565
 44877.81      45.615848       8.711810       0.019479      36.884559
 44926.69      30.574253       5.839121       0.013036      24.722096
 44975.56      20.223025       3.862198       0.008609      16.352219
 45024.44      13.200539       2.520989       0.005611      10.673939
 45073.31       8.503662       1.623906       0.003609       6.876147
 45122.19       5.406607       1.032321       0.002291       4.371995
 45171.07       3.393458       0.647679       0.001435       2.744344
 45219.94       2.103821       0.401115       0.000888       1.701818
 45268.82       1.290272       0.245321       0.000543       1.044407
 45317.69       0.785917       0.148343       0.000329       0.637245
 45366.57       0.480266       0.088960       0.000199       0.391107
 45415.44       0.301709       0.053327       0.000123       0.248259
 45464.32       0.205088       0.032581       0.000081       0.172426
 45513.20       0.163101       0.021179       0.000061       0.141861
 45562.07       0.160501       0.015760       0.000058       0.144683
 45610.95       0.190303       0.014391       0.000069       0.175843
 45659.82       0.251395       0.016077       0.000095       0.235223
 45708.70       0.347091       0.020444       0.000138       0.326509
 45757.58       0.484322       0.027552       0.000204       0.456566
 45806.45       0.673183       0.037772       0.000303       0.635108
 45855.33       0.925463       0.051486       0.000446       0.873530
 45904.20       1.259978       0.070094       0.000655       1.189229
 45953.08       1.692842       0.094171       0.000954       1.597718
 46001.96       2.244501       0.124853       0.001376       2.118272
 46050.83       2.936793       0.163354       0.001968       2.771471
 46099.71       3.792083       0.210915       0.002790       3.578378
 46148.58       4.832074       0.268740       0.003919       4.559415
 46197.46       6.076330       0.337913       0.005455       5.732962
 46246.33       7.540530       0.419300       0.007520       7.113710
 46295.21       9.234554       0.513442       0.010265       8.710846
 46344.09      11.160522       0.620450       0.013873      10.526199
 46392.96      13.310940       0.739894       0.018555      12.552491
 46441.84      15.667145       0.870723       0.024556      14.771867
 46490.71      18.198468       1.011409       0.032148      17.154912
 46539.59      20.861135       1.159285       0.041624      19.660226
 46588.47      23.599638       1.311413       0.053289      22.234936
 46637.34      26.347579       1.464192       0.067444      24.815942
 46686.22      29.030136       1.613640       0.084370      27.332126
 46735.09      31.567294       1.755621       0.104301      29.707373
 46783.97      33.877832       1.886160       0.127402      31.864270
 46832.84      35.883816       2.001829       0.153743      33.728245
 46881.72      37.515340       2.100222       0.183267      35.231850
 46930.60      38.715171       2.180537       0.215774      36.318860
 46979.47      39.443024       2.244281       0.250895      36.947848
 47028.35      39.679204       2.296170       0.288087      37.094946
 47077.22      39.427453       2.345268       0.326634      36.755551
 47126.10      38.716986       2.406479       0.365656      35.944850
 47174.98      37.603797       2.502506       0.404142      34.697149
 47223.85      36.171490       2.666418       0.440983      33.064089
 47272.73      34.531967       2.944986       0.475027      31.111954
 47321.60      32.826439       3.402926       0.505138      28.918375
 47370.48      31.227168       4.128177       0.530258      26.568734
 47419.35      29.940369       5.238260       0.549473      24.152635
 47468.23      29.210498       6.887668       0.562069      21.760761
 47517.11      29.325988       9.276065       0.567581      19.482342
 47565.98      30.626149      12.656898       0.565827      17.403424
 47614.86      33.523133      17.350387       0.556924      15.615822
 47663.73      38.463856      23.736294       0.541278      14.186284
 47712.61      45.994207      32.277502       0.519575      13.197131
 47761.49      56.728222      43.510590       0.492731      12.724901
 47810.36      71.354219      58.044482       0.461846      12.847891
 47859.24      90.627460      76.550117       0.428141      13.649202
 47908.11     115.355994      99.742409       0.392896      15.220689
 47956.99     146.379646     128.353911       0.357375      17.668359
 48005.87     184.543548     163.100505       0.322784      21.120259
 48054.74     230.669337     204.640642       0.290209      25.738487
 48103.62     285.529515     253.531181       0.260588      31.737746
 48152.49     349.833060     310.184631       0.234691      39.413739
 48201.37     424.233206     374.834367       0.213114      49.185724
 48250.24     509.370996     447.516117       0.196300      61.658579
 48299.12     605.970518     528.075335       0.184570      77.710613
 48348.00     715.003044     616.210806       0.178176      98.614062
 48396.87     837.937339     711.564681       0.177373     126.195284
 48445.75     977.091331     813.867827       0.182516     163.040989
 48494.62    1136.095941     923.146805       0.194163     212.754973
 48543.50    1320.474292    1039.994676       0.213216     280.266400
 48592.38    1538.328751    1165.902288       0.241064     372.185399
 48641.25    1801.113846    1303.639701       0.279753     497.194392
 48690.13    2124.455545    1457.669258       0.332163     666.454124
 48739.00    2528.957223    1634.562874       0.402192     893.992157
 48787.88    3040.914300    1843.387347       0.494923    1197.032031
 48836.75    3692.820274    2096.010692       0.616780    1596.192801
 48885.63    4523.580081    2407.281946       0.775637    2115.522498
 48934.51    5578.260841    2795.023445       0.980856    2782.256540
 48983.38    6907.280304    3279.783669       1.243250    3626.253385
 49032.26    8564.910075    3884.299871       1.574921    4679.035283
 49081.13   10607.015540    4632.634029       1.988969    5972.392542
 49130.01   13088.005053    5548.965812       2.499051    7536.540190
 49178.89   16057.032073    6656.054161       3.118776    9397.859136
 49227.76   19553.580758    7973.413512       3.860952   11576.306294
 49276.64   23602.661435    9515.289467       4.736689   14082.635279
 49325.51   28209.937832   11288.558251       5.754414   16915.625167
 49374.39   33357.190714   13290.710120       6.918827   20059.561767
 49423.26   38998.578991   15508.103465       8.229891   23482.245634
 49472.14   45058.176528   17914.688512       9.681917   27133.806099
 49521.02   51429.229983   20471.392345      11.262840   30946.574798
 49569.89   57975.494875   23126.327583      12.953831   34836.213461
 49618.77   64534.863495   25815.934777      14.729028   38704.199689
 49667.64   70925.310223   28467.095936      16.556091   42441.658196
 49716.52   76952.959516   31000.169228      18.396838   45934.393450
 49765.40   82421.857179   33332.801384      20.208508   49068.847287
 49814.27   87144.818453   35384.285243      21.945411   51738.587800
 49863.15   90954.566538   37080.156497      23.560922   53850.849119
 49912.02   93714.284895   38356.676375      25.009739   55332.598780
 49960.90   95326.702021   39164.833611      26.250253   56135.618157
 50009.78   95740.914339   39473.523476      27.246900   56240.143963
 50058.65   94956.325527   39271.623182      27.972359   55656.729987
 50107.53   93023.321918   38568.775767      28.409439   54426.136711
 50156.40   90040.587313   37394.808826      28.552578   52617.225908
 50205.28   86149.254816   35797.837076      28.408857   50323.008883
 50254.15   81524.365139   33841.214748      27.998541   47655.151851
 50303.03   76364.320946   31599.601903      27.355154   44737.363888
 50351.91   70879.173127   29154.477317      26.525204   41698.170607
 50400.78   65278.635704   26589.463177      25.567664   38663.604863
 50449.66   59760.700473   23985.821677      24.553412   35750.325385
 50498.53   54501.620108   21418.443726      23.564776   33059.611606
 50547.41   49647.866743   18952.582573      22.695383   30672.588786
 50596.29   45310.474216   16641.499766      22.050410   28646.924039
 50645.16   41561.959828   14525.098680      21.747311   27015.113837
 50694.04   38435.816900   12629.532152      21.916948   25784.367800
 50742.91   35928.389791   10967.694407      22.704964   24937.990419
 50791.79   34002.799563    9540.449464      24.273067   24438.077033
 50840.66   32594.486792    8338.411656      26.799778   24229.275358
 50889.54   31617.878393    7344.078840      30.480083   24243.319470
 50938.42   30973.664850    6534.123093      35.523351   24404.018406
 50987.29   30556.187344    5881.663261      42.148887   24632.375196
 51036.17   30260.475213    5358.373848      50.578580   24851.522784
 51085.04   29988.536930    4936.320773      61.026291   24991.189866
 51133.92   29654.587136    4589.452060      73.683914   24991.451161
 51182.80   29188.983323    4294.707362      88.704433   24805.571528
 51231.67   28540.743881    4032.741848     106.182731   24401.819303
 51280.55   27678.619137    3788.285986     126.135396   23764.197755
 51329.42   26590.784587    3550.183531     148.481165   22892.119891
 51378.30   25283.309582    3311.160909     173.023997   21799.124677
 51427.17   23777.632177    3067.394109     199.440911   20510.797157
 51476.05   22107.316046    2817.936119     227.276676   19062.103252
 51524.93   20314.396390    2564.069564     255.947056   17494.379770
 51573.80   18445.621448    2308.641959     284.751914   15852.227575
 51622.68   16548.872198    2055.432441     312.898281   14180.541476
 51671.55   14669.997973    1808.588115     339.533208   12521.876651
 51720.43   12850.243558    1572.156399     363.784366   10914.302794
 51769.31   11124.373956    1349.727989     384.806110    9389.839857
 51818.18    9519.531421    1144.194086     401.827575    7973.509760
 51867.06    8054.796251     957.612364     414.199025    6682.984862
 51915.93    6741.357793     791.167665     421.432578    5528.757550
 51964.81    5583.195775     645.211730     423.233755    4514.750289
 52013.69    4578.104332     519.358947     419.521026    3639.224359
 52062.56    3718.930673     412.619284     410.431576    2895.879814
 52111.44    2994.886802     323.548716     396.312775    2275.025311
 52160.31    2392.821324     250.401108     377.700150    1764.720067
 52209.19    1898.365004     191.269116     355.283873    1351.812015
 52258.06    1496.893727     144.205667     329.866805    1022.821255
 52306.94    1174.281234     107.321306     302.317739     764.642188
 52355.82     917.438806      78.856033     273.523779     565.058994
 52404.69     714.653514      57.226805     244.345595     413.081115
 52453.57     555.782777      41.051033     215.578796     299.152948
 52502.44     432.274706      29.167434     187.923810     215.183462
 52551.32     337.128549      20.611522     161.965727     154.551300
 52600.20     264.798113      14.619302     138.164489     112.014322
 52649.07     211.057762      10.605229     116.854869      83.597664
 52697.95     172.874072       8.143925      98.255460      66.474687
 52746.82     148.295365       6.953946      82.481659      58.859759
 52795.70     136.365630       6.880420      69.567140      59.918069
 52844.57     137.085820       7.888336      59.483315      69.714168
 52893.45     151.396818      10.053851      52.160106      89.182861
 52942.33     181.197891      13.562144      47.504079     120.131668
 52991.20     229.383576      18.707763      45.412789     165.263023
 53040.08     299.886629      25.896671      45.784419     228.205539
 53088.95     397.710036      35.648297      48.522328     313.539410
 53137.83     528.928341      48.595616      53.534715     426.798010
 53186.71     700.641421      65.482313      60.730114     574.428993
 53235.58     920.835571      87.148437      70.009897     763.677236
 53284.46    1198.184596     114.516957      81.259368    1002.408271
 53333.33    1541.712071     148.562277      94.339269    1298.810525
 53382.21    1960.354064     190.273064     109.079702    1661.001297
 53431.09    2462.406127     240.604505     125.278431    2096.523190
 53479.96    3054.878049     300.423942     142.705360    2611.748746
 53528.84    3742.788945     370.453634     161.114602    3211.220710
 53577.71    4528.452773     451.216511     180.264989    3896.971274
 53626.59    5410.816790     542.992024     199.949130    4667.875636
 53675.46    6384.940365     645.791954     220.030217    5519.118194
 53724.34    7441.659277     759.360430     240.484792    6441.814055
 53773.22    8567.559218     883.211796     261.448652    7422.898770
 53822.09    9745.278170    1016.706817     283.262089    8445.309264
 53870.97   10954.190612    1159.171091     306.509835    9488.509685
 53919.84   12171.472868    1310.052780     332.050484   10529.369604
 53968.72   13373.511352    1469.111389     361.029960   11543.370003
 54017.60   14537.573629    1636.623766     394.873783   12506.076080
 54066.47   15643.622500    1813.588099     435.253675   13394.780726
 54115.35   16676.121550    2001.902567     484.025331   14190.193652
 54164.22   17625.661791    2204.493038     543.136111   14878.032643
 54213.10   18490.236996    2425.364541     614.503851   15450.368604
 54261.97   19276.012163    2669.554559     699.870844   15906.586759
 54310.85   19997.465002    2942.972551     800.640127   16253.852324
 54359.73   20676.831775    3252.119266     917.704241   16507.008269
 54408.60   21342.851257    3603.690637    1051.279263   16687.881357
 54457.48   22028.867561    4004.083256    1200.758960   16824.025345
 54506.35   22770.415709    4458.830392    1364.604064   16946.981253
 54555.23   23602.468045    4972.007734    1540.282080   17090.178230
 54604.11   24556.554819    5545.655246    1724.269479   17286.630094
 54652.98   25657.988689    6179.264590    1912.124962   17566.599138
 54701.86   26923.415511    6869.379915    2098.636702   17955.398893
 54750.73   28358.885731    7609.353321    2278.040037   18471.492373
 54799.61   29958.595030    8389.285462    2444.295120   19125.014447
 54848.48   31704.385483    9196.167688    2591.407493   19916.810301
 54897.36   33566.036240   10014.226170    2713.769034   20838.041036
 54946.24   35502.312343   10825.452457    2806.493237   21870.366649
 54995.11   37462.687658   11610.290374    2865.717694   22986.679590
 55043.99   39389.617296   12348.437687    2888.848319   24152.331291
 55092.86   41221.208289   13019.713344    2874.724339   25326.770606
 55141.74   42894.124760   13604.937982    2823.689750   26465.497027
 55190.62   44346.563580   14086.776462    2737.565341   27522.221777
 55239.49   45521.145615   14450.496038    2619.524349   28451.125227
 55288.37   46367.582949   14684.601299    2473.883464   29209.098186
 55337.24   46845.001105   14781.316279    2305.828145   29757.856681
 55386.12   46923.815283   14736.894058    2121.096323   30065.824902
 55435.00   46587.080368   14551.743990    1925.646998   30109.689380
 55483.87   45831.256088   14230.375870    1725.339896   29875.540323
 55532.75   44666.352281   13781.168696    1525.649374   29359.534211
 55581.62   43115.445618   13215.979115    1331.430783   28568.035720
 55630.50   41213.588807   12549.611267    1146.751111   27517.226429
 55679.37   39006.165637   11799.175626     974.788915   26232.201095
 55728.25   36546.778381   10983.369362     817.802003   24745.607016
 55777.13   33894.785070   10121.714575     677.155756   23095.914740
 55826.00   31112.629499    9233.792995     553.400924   21325.435580
 55874.88   28263.122852    8338.515948     446.387282   19478.219621
 55923.75   25406.839760    7453.466211     355.398841   17597.974709
 55972.63   22599.781888    6594.343648     279.297048   15726.141192
 56021.51   19891.439113    5774.539371     216.660327   13900.239416
 56070.38   17323.344065    5004.854047     165.910910   12152.579108
 56119.26   14928.173819    4293.365739     125.422862   10509.385218
 56168.13   12729.407666    3645.442189      93.608041    8990.357436
 56217.01   10741.506841    3063.882862      68.979274    7608.644706
 56265.88    8970.545577    2549.168260      50.192010    6371.185308
 56314.76    7415.196053    2099.788651      36.067123    5279.340279
 56363.64    6067.954772    1712.621896      25.598273    4329.734603
 56412.51    4916.494988    1383.330426      17.947614    3515.216948
 56461.39    3945.037599    1106.750284      12.433462    2825.853853
 56510.26    3135.649067     877.249974       8.512925    2249.886167
 56559.14    2469.397216     689.042817       5.762420    1774.591979
 56608.02    1927.319301     536.442872       3.857798    1387.018631
 56656.89    1491.180597     414.060563       2.555581    1074.564452
 56705.77    1144.021153     316.939212       1.676129     825.405811
 56754.64     870.512615     240.638504       1.089177     628.784934
 56803.52     657.132240     181.270930       0.701824     475.159486
 56852.39     492.214122     135.503353       0.448879     356.261890
 56901.27     365.888401     100.530877       0.285302     265.072222
 56950.15     269.951318      74.032992       0.180438     195.737888
 56999.02     197.692403      54.119481       0.113716     143.459206
 57047.90     143.701892      39.272251       0.071525     104.358116
 57096.77     103.675802      28.287698       0.044968      75.343135
 57145.65      74.230763      20.222727       0.028300      53.979736
 57194.53      52.736068      14.346273       0.017850      38.371945
 57243.40      37.166675      10.097213       0.011294      27.058168
 57292.28      25.978212       7.048797       0.007172      18.922244
 57341.15      18.003140       4.879254       0.004570      13.119316
 57390.03      12.366165       3.347963       0.002921       9.015281
 57438.91       8.416437       2.276429       0.001871       6.138137
 57487.78       5.673730       1.533308       0.000990       4.139432
 57536.66       3.787476       1.022734       0.000661       2.764081
 57585.53       2.501299       0.674729       0.000436       1.826134
 57634.41       1.635806       0.441006       0.000285       1.194514
 57683.28       1.058307       0.285166       0.000185       0.772956
 57732.16       0.677159       0.182379       0.000118       0.494662
 57781.04       0.428414       0.115336       0.000075       0.313003
 57829.91       0.267937       0.072106       0.000047       0.195784
 57878.79       0.165619       0.044556       0.000029       0.121035
 57927.66       0.101162       0.027207       0.000018       0.073937
 57976.54       0.058512       0.015719       0.000010       0.042783
 58025.42       0.035086       0.009424       0.000006       0.025655
 58074.29       0.020632       0.005537       0.000004       0.015091
 58123.17       0.012060       0.003237       0.000002       0.008821
 58172.04       0.006957       0.001867       0.000001       0.005089
 58220.92       0.003960       0.001063       0.000001       0.002897
 58269.79       0.002225       0.000597       0.000000       0.001627
 58318.67       0.001233       0.000331       0.000000       0.000902
 58367.55       0.000675       0.000181       0.000000       0.000494
 58416.42       0.000364       0.000098       0.000000       0.000266
 58465.30       0.000194       0.000052       0.000000       0.000142
 58514.17       0.000102       0.000027       0.000000       0.000075
 58563.05       0.000000       0.000000       0.000000       0.000000
 58611.93       0.000000       0.000000       0.000000       0.000000
 58660.80       0.000000       0.000000       0.000000       0.000000
 58709.68       0.000000       0.000000       0.000000       0.000000
 58758.55       0.000000       0.000000       0.000000       0.000000
 58807.43       0.000000       0.000000       0.000000       0.000000
 58856.30       0.000000       0.000000       0.000000       0.000000
 58905.18       0.000000       0.000000       0.000000       0.000000
 58954.06       0.000000       0.000000       0.000000       0.000000
 59002.93       0.000000       0.000000       0.000000       0.000000
 59051.81       0.000000       0.000000       0.000000       0.000000
 59100.68       0.000000       0.000000       0.000000       0.000000
 59149.56       0.000000       0.000000       0.000000       0.000000
 59198.44       0.000000       0.000000       0.000000       0.000000
 59247.31       0.000000       0.000000       0.000000       0.000000
 59296.19       0.000000       0.000000       0.000000       0.000000
 59345.06       0.000000       0.000000       0.000000       0.000000
 59393.94       0.000000       0.000000       0.000000       0.000000
 59442.82       0.000000       0.000000       0.000000       0.000000
 59491.69       0.000000       0.000000       0.000000       0.000000
 59540.57       0.000000       0.000000       0.000000       0.000000
 59589.44       0.000000       0.000000       0.000000       0.000000
 59638.32       0.000000       0.000000       0.000000       0.000000
 59687.19       0.000000       0.000000       0.000000       0.000000
 59736.07       0.000000       0.000000       0.000000       0.000000
 59784.95       0.000000       0.000000       0.000000       0.000000
 59833.82       0.000000       0.000000       0.000000       0.000000
 59882.70       0.000000       0.000000       0.000000       0.000000
 59931.57       0.000000       0.000000       0.000000       0.000000
 59980.45       0.000000       0.000000       0.000000       0.000000
 60029.33       0.000000       0.000000       0.000000       0.000000
 60078.20       0.000000       0.000000       0.000000       0.000000
 60127.08       0.000000       0.000000       0.000000       0.000000
 60175.95       0.000000       0.000000       0.000000       0.000000
 60224.83       0.000000       0.000000       0.000000       0.000000
 60273.70       0.000000       0.000000       0.000000       0.000000
 60322.58       0.000000       0.000000       0.000000       0.000000
 60371.46       0.000000       0.000000       0.000000       0.000000
 60420.33       0.000000       0.000000       0.000000       0.000000
 60469.21       0.000000       0.000000       0.000000       0.000000
 60518.08       0.000000       0.000000       0.000000       0.000000
 60566.96       0.000000       0.000000       0.000000       0.000000
 60615.84       0.000000       0.000000       0.000000       0.000000
 60664.71       0.000000       0.000000       0.000000       0.000000
 60713.59       0.000000       0.000000       0.000000       0.000000
 60762.46       0.000000       0.000000       0.000000       0.000000
 60811.34       0.000000       0.000000       0.000000       0.000000
 60860.22       0.000000       0.000000       0.000000       0.000000
 60909.09       0.000000       0.000000       0.000000       0.000000
 60957.97       0.000000       0.000000       0.000000       0.000000
 61006.84       0.000000       0.000000       0.000000       0.000000
 61055.72       0.000000       0.000000       0.000000       0.000000
 61104.59       0.000000       0.000000       0.000000       0.000000
 61153.47       0.000000       0.000000       0.000000       0.000000
 61202.35       0.000000       0.000000       0.000000       0.000000
 61251.22       0.000000       0.000000       0.000000       0.000000
 61300.10       0.000000       0.000000       0.000000       0.000000
 61348.97       0.000000       0.000000       0.000000       0.000000
 61397.85       0.000000       0.000000       0.000000       0.000000
 61446.73       0.000000       0.000000       0.000000       0.000000
 61495.60       0.000000       0.000000       0.000000       0.000000
 61544.48       0.000000       0.000000       0.000000       0.000000
 61593.35       0.000000       0.000000       0.000000       0.000000
 61642.23       0.000000       0.000000       0.000000       0.000000
 61691.10       0.000000       0.000000       0.000000       0.000000
 61739.98       0.000000       0.000000       0.000000       0.000000
 61788.86       0.000000       0.000000       0.000000       0.000000
 61837.73       0.000000       0.000000       0.000000       0.000000
 61886.61       0.000000       0.000000       0.000000       0.000000
 61935.48       0.000000       0.000000       0.000000       0.000000
 61984.36       0.000000       0.000000       0.000000       0.000000
 62033.24       0.000000       0.000000       0.000000       0.000000
 62082.11       0.000000       0.000000       0.000000       0.000000
 62130.99       0.000000       0.000000       0.000000       0.000000
 62179.86       0.000000       0.000000       0.000000       0.000000
 62228.74       0.000000       0.000000       0.000000       0.000000
 62277.61       0.000000       0.000000       0.000000       0.000000
 62326.49       0.000000       0.000000       0.000000       0.000000
 62375.37       0.000000       0.000000       0.000000       0.000000
 62424.24       0.000000       0.000000       0.000000       0.000000
 62473.12       0.000000       0.000000       0.000000       0.000000
 62521.99       0.000000       0.000000       0.000000       0.000000
 62570.87       0.000000       0.000000       0.000000       0.000000
 62619.75       0.000000       0.000000       0.000000       0.000000
 62668.62       0.000000       0.000000       0.000000       0.000000
 62717.50       0.000000       0.000000       0.000000       0.000000
 62766.37       0.000000       0.000000       0.000000       0.000000
 62815.25       0.000000       0.000000       0.000000       0.000000
 62864.13       0.000000       0.000000       0.000000       0.000000
 62913.00       0.000000       0.000000       0.000000       0.000000
 62961.88       0.000000       0.000000       0.000000       0.000000
 63010.75       0.000000       0.000000       0.000000       0.000000
 63059.63       0.000000       0.000000       0.000000       0.000000
 63108.50       0.000000       0.000000       0.000000       0.000000
 63157.38       0.000000       0.000000       0.000000       0.000000
 63206.26       0.000000       0.000000       0.000000       0.000000
 63255.13       0.000000       0.000000       0.000000       0.000000
 63304.01       0.000000       0.000000       0.000000       0.000000
 63352.88       0.000000       0.000000       0.000000       0.000000
 63401.76       0.000000       0.000000       0.000000       0.000000
 63450.64       0.000000       0.000000       0.000000       0.000000
 63499.51       0.000000       0.000000       0.000000       0.000000
 63548.39       0.000000       0.000000       0.000000       0.000000
 63597.26       0.000000       0.000000       0.000000       0.000000
 63646.14       0.000000       0.000000       0.000000       0.000000
 63695.01       0.000000       0.000000       0.000000       0.000000
 63743.89       0.000000       0.000000       0.000000       0.000000
 63792.77       0.000000       0.000000       0.000000       0.000000
 63841.64       0.000000       0.000000       0.000000       0.000000
 63890.52       0.000000       0.000000       0.000000       0.000000
 63939.39       0.000000       0.000000       0.000000       0.000000
 63988.27       0.000000       0.000000       0.000000       0.000000
 64037.15       0.000000       0.000000       0.000000       0.000000
 64086.02       0.000000       0.000000       0.000000       0.000000
 64134.90       0.000000       0.000000       0.000000       0.000000
 64183.77       0.000000       0.000000       0.000000       0.000000
 64232.65       0.000000       0.000000       0.000000       0.000000
 64281.52       0.000000       0.000000       0.000000       0.000000
 64330.40       0.000000       0.000000       0.000000       0.000000
 64379.28       0.000000       0.000000       0.000000       0.000000
 64428.15       0.000000       0.000000       0.000000       0.000000
 64477.03       0.000000       0.000000       0.000000       0.000000
 64525.90       0.000000       0.000000       0.000000       0.000000
 64574.78       0.000000       0.000000       0.000000       0.000000
 64623.66       0.000000       0.000000       0.000000       0.000000
 64672.53       0.000000       0.000000       0.000000       0.000000
 64721.41       0.000000       0.000000       0.000000       0.000000
 64770.28       0.000000       0.000000       0.000000       0.000000
 64819.16       0.000000       0.000000       0.000000       0.000000
 64868.04       0.000000       0.000000       0.000000       0.000000
 64916.91       0.000000       0.000000       0.000000       0.000000
 64965.79       0.000000       0.000000       0.000000       0.000000
 65014.66       0.000000       0.000000       0.000000       0.000000
 65063.54       0.000000       0.000000       0.000000       0.000000
 65112.41       0.000000       0.000000       0.000000       0.000000
 65161.29       0.000000       0.000000       0.000000       0.000000
 65210.17       0.000000       0.000000       0.000000       0.000000
 65259.04       0.000000       0.000000       0.000000       0.000000
 65307.92       0.000000       0.000000       0.000000       0.000000
 65356.79       0.000000       0.000000       0.000000       0.000000
 65405.67       0.000000       0.000000       0.000000       0.000000
 65454.55       0.000000       0.000000       0.000000       0.000000
 65503.42       0.000000       0.000000       0.000000       0.000000
 65552.30       0.000000       0.000000       0.000000       0.000000
 65601.17       0.000000       0.000000       0.000000       0.000000
 65650.05       0.000000       0.000000       0.000000       0.000000
 65698.92       0.000000       0.000000       0.000000       0.000000
 65747.80       0.000000       0.000000       0.000000       0.000000
 65796.68       0.000000       0.000000       0.000000       0.000000
 65845.55       0.000000       0.000000       0.000000       0.000000
 65894.43       0.000000       0.000000       0.000000       0.000000
 65943.30       0.000000       0.000000       0.000000       0.000000
 65992.18       0.000000       0.000000       0.000000       0.000000
 66041.06       0.000000       0.000000       0.000000       0.000000
 66089.93       0.000000       0.000000       0.000000       0.000000
 66138.81       0.000000       0.000000       0.000000       0.000000
 66187.68       0.000000       0.000000       0.000000       0.000000
 66236.56       0.000000       0.000000       0.000000       0.000000
 66285.43       0.000000       0.000000       0.000000       0.000000
 66334.31       0.000000       0.000000       0.000000       0.000000
 66383.19       0.000000       0.000000       0.000000       0.000000
 66432.06       0.000000       0.000000       0.000000       0.000000
 66480.94       0.000000       0.000000       0.000000       0.000000
 66529.81       0.000000       0.000000       0.000000       0.000000
 66578.69       0.000000       0.000000       0.000000       0.000000
 66627.57       0.000000       0.000000       0.000000       0.000000
 66676.44       0.000000       0.000000       0.000000       0.000000
 66725.32       0.000000       0.000000       0.000000       0.000000
 66774.19       0.000000       0.000000       0.000000       0.000000
 66823.07       0.000000       0.000000       0.000000       0.000000
 66871.95       0.000000       0.000000       0.000000       0.000000
 66920.82       0.000000       0.000000       0.000000       0.000000
 66969.70       0.000000       0.000000       0.000000       0.000000
 67018.57       0.000000       0.000000       0.000000       0.000000
 67067.45       0.000000       0.000000       0.000000       0.000000
 67116.32       0.000000       0.000000       0.000000       0.000000
 67165.20       0.000000       0.000000       0.000000       0.000000
 67214.08       0.000000       0.000000       0.000000       0.000000
 67262.95       0.000000       0.000000       0.000000       0.000000
 67311.83       0.000000       0.000000       0.000000       0.000000
 67360.70       0.000000       0.000000       0.000000       0.000000
 67409.58       0.000000       0.000000       0.000000       0.000000
 67458.46       0.000000       0.000000       0.000000       0.000000
 67507.33       0.000000       0.000000       0.000000       0.000000
 67556.21       0.000000       0.000000       0.000000       0.000000
 67605.08       0.000000       0.000000       0.000000       0.000000
 67653.96       0.000000       0.000000       0.000000       0.000000
 67702.83       0.000000       0.000000       0.000000       0.000000
 67751.71       0.000000       0.000000       0.000000       0.000000
 67800.59       0.000000       0.000000       0.000000       0.000000
 67849.46       0.000000       0.000000       0.000000       0.000000
 67898.34       0.000000       0.000000       0.000000       0.000000
 67947.21       0.000000       0.000000       0.000000       0.000000
 67996.09       0.000000       0.000000       0.000000       0.000000
 68044.97       0.000000       0.000000       0.000000       0.000000
 68093.84       0.000000       0.000000       0.000000       0.000000
 68142.72       0.000000       0.000000       0.000000       0.000000
 68191.59       0.000000       0.000000       0.000000       0.000000
 68240.47       0.000000       0.000000       0.000000       0.000000
 68289.35       0.000000       0.000000       0.000000       0.000000
 68338.22       0.000000       0.000000       0.000000       0.000000
 68387.10       0.000000       0.000000       0.000000       0.000000
 68435.97       0.000000       0.000000       0.000000       0.000000
 68484.85       0.000000       0.000000       0.000000       0.000000
 68533.72       0.000000       0.000000       0.000000       0.000000
 68582.60       0.000000       0.000000       0.000000       0.000000
 68631.48       0.000000       0.000000       0.000000       0.000000
 68680.35       0.000000       0.000000       0.000000       0.000000
 68729.23       0.000000       0.000000       0.000000       0.000000
 68778.10       0.000000       0.000000       0.000000       0.000000
 68826.98       0.000000       0.000000       0.000000       0.000000
 68875.86       0.000000       0.000000       0.000000       0.000000
 68924.73       0.000000       0.000000       0.000000       0.000000
 68973.61       0.000000       0.000000       0.000000       0.000000
 69022.48       0.000000       0.000000       0.000000       0.000000
 69071.36       0.000000       0.000000       0.000000       0.000000
 69120.23       0.000000       0.000000       0.000000       0.000000
 69169.11       0.000000       0.000000       0.000000       0.000000
 69217.99       0.000000       0.000000       0.000000       0.000000
 69266.86       0.000000       0.000000       0.000000       0.000000
 69315.74       0.000000       0.000000       0.000000       0.000000
 69364.61       0.000000       0.000000       0.000000       0.000000
 69413.49       0.000000       0.000000       0.000000       0.000000
 69462.37       0.000000       0.000000       0.000000       0.000000
 69511.24       0.000000       0.000000       0.000000       0.000000
 69560.12       0.000000       0.000000       0.000000       0.000000
 69608.99       0.000000       0.000000       0.000000       0.000000
 69657.87       0.000000       0.000000       0.000000       0.000000
 69706.74       0.000000       0.000000       0.000000       0.000000
 69755.62       0.000000       0.000000       0.000000       0.000000
 69804.50       0.000000       0.000000       0.000000       0.000000
 69853.37       0.000000       0.000000       0.000000       0.000000
 69902.25       0.000000       0.000000       0.000000       0.000000
 69951.12       0.000000       0.000000       0.000000       0.000000
 70000.00       0.000000       0.000000       0.000000       0.000000