 20000.00       1.040517       0.949122       0.000043       0.091351
 20048.88       1.248097       1.138469       0.000052       0.109576
 20097.75       1.477387       1.347620       0.000061       0.129706
 20146.63       1.725788       1.574202       0.000072       0.151514
 20195.50       1.989425       1.814683       0.000083       0.174660
 20244.38       2.263158       2.064372       0.000094       0.198692
 20293.26       2.540676       2.317514       0.000105       0.223057
 20342.13       2.814691       2.567461       0.000117       0.247114
 20391.01       3.077225       2.806935       0.000128       0.270163
 20439.88       3.319976       3.028363       0.000138       0.291475
 20488.76       3.534741       3.224264       0.000147       0.310330
 20537.63       3.713876       3.387665       0.000154       0.326057
 20586.51       3.850740       3.512508       0.000160       0.338073
 20635.39       3.940108       3.594026       0.000163       0.345919
 20684.26       3.978498       3.629044       0.000165       0.349289
 20733.14       3.964398       3.616182       0.000164       0.348051
 20782.01       3.898364       3.555948       0.000162       0.342254
 20830.89       3.782985       3.450704       0.000157       0.332124
 20879.77       3.622713       3.304509       0.000150       0.318053
 20928.64       3.423579       3.122866       0.000142       0.300571
 20977.52       3.192815       2.912372       0.000132       0.280311
 21026.39       2.938423       2.680324       0.000122       0.257977
 21075.27       2.668714       2.434305       0.000111       0.234298
 21124.14       2.391865       2.181774       0.000099       0.209992
 21173.02       2.115526       1.929707       0.000088       0.185731
 21221.90       1.846491       1.684303       0.000077       0.162111
 21270.77       1.590462       1.450762       0.000066       0.139633
 21319.65       1.351905       1.233160       0.000056       0.118690
 21368.52       1.134009       1.034402       0.000047       0.099559
 21417.40       0.938714       0.856262       0.000039       0.082414
 21466.28       0.766828       0.699473       0.000032       0.067323
 21515.15       0.618172       0.563874       0.000026       0.054272
 21564.03       0.491776       0.448581       0.000020       0.043175
 21612.90       0.386076       0.352165       0.000016       0.033895
 21661.78       0.299106       0.272834       0.000012       0.026260
 21710.65       0.228678       0.208592       0.000009       0.020077
 21759.53       0.172533       0.157378       0.000007       0.015147
 21808.41       0.128459       0.117176       0.000005       0.011278
 21857.28       0.094386       0.086095       0.000004       0.008287
 21906.16       0.068438       0.062426       0.000003       0.006008
 21955.03       0.048970       0.044669       0.000002       0.004299
 22003.91       0.034579       0.031542       0.000001       0.003036
 22052.79       0.024096       0.021979       0.000001       0.002115
 22101.66       0.016570       0.015114       0.000001       0.001455
 22150.54       0.011245       0.010257       0.000000       0.000987
 22199.41       0.007530       0.006869       0.000000       0.000661
 22248.29       0.004977       0.004539       0.000000       0.000437
 22297.17       0.003246       0.002961       0.000000       0.000285
 22346.04       0.002089       0.001905       0.000000       0.000183
 22394.92       0.001327       0.001210       0.000000       0.000116
 22443.79       0.000832       0.000758       0.000000       0.000073
 22492.67       0.000514       0.000469       0.000000       0.000045
 22541.54       0.000314       0.000286       0.000000       0.000028
 22590.42       0.000189       0.000172       0.000000       0.000017
 22639.30       0.000112       0.000103       0.000000       0.000010
 22688.17       0.000066       0.000060       0.000000       0.000006
 22737.05       0.000038       0.000035       0.000000       0.000003
 22785.92       0.000022       0.000020       0.000000       0.000002
 22834.80       0.000012       0.000011       0.000000       0.000001
 22883.68       0.000007       0.000006       0.000000       0.000001
 22932.55       0.000004       0.000003       0.000000       0.000000
 22981.43       0.000002       0.000002       0.000000       0.000000
 23030.30       0.000001       0.000001       0.000000       0.000000
 23079.18       0.000001       0.000001       0.000000       0.000000
 23128.05       0.000000       0.000000       0.000000       0.000000
 23176.93       0.000000       0.000000       0.000000       0.000000
 23225.81       0.000000       0.000000       0.000000       0.000000
 23274.68       0.000000       0.000000       0.000000       0.000000
 23323.56       0.000000       0.000000       0.000000       0.000000
 23372.43       0.000000       0.000000       0.000000       0.000000
 23421.31       0.000000       0.000000       0.000000       0.000000
 23470.19       0.000000       0.000000       0.000000       0.000000
 23519.06       0.000000       0.000000       0.000000       0.000000
 23567.94       0.000000       0.000000       0.000000       0.000000
 23616.81       0.000000       0.000000       0.000000       0.000000
 23665.69       0.000000       0.000000       0.000000       0.000000
 23714.57       0.000000       0.000000       0.000000       0.000000
 23763.44       0.000000       0.000000       0.000000       0.000000
 23812.32       0.000000       0.000000       0.000000       0.000000
 23861.19       0.000000       0.000000       0.000000       0.000000
 23910.07       0.000000       0.000000       0.000000       0.000000
 23958.94       0.000000       0.000000       0.000000       0.000000
 24007.82       0.000000       0.000000       0.000000       0.000000
 24056.70       0.000000       0.000000       0.000000       0.000000
 24105.57       0.000000       0.000000       0.000000       0.000000
 24154.45       0.000000       0.000000       0.000000       0.000000
 24203.32       0.000000       0.000000       0.000000       0.000000
 24252.20       0.000000       0.000000       0.000000       0.000000
 24301.08       0.000000       0.000000       0.000000       0.000000
 24349.95       0.000000       0.000000       0.000000       0.000000
 24398.83       0.000000       0.000000       0.000000       0.000000
 24447.70       0.000000       0.000000       0.000000       0.000000
 24496.58       0.000000       0.000000       0.000000       0.000000
 24545.45       0.000000       0.000000       0.000000       0.000000
 24594.33       0.000000       0.000000       0.000000       0.000000
 24643.21       0.000000       0.000000       0.000000       0.000000
 24692.08       0.000000       0.000000       0.000000       0.000000
 24740.96       0.000000       0.000000       0.000000       0.000000
 24789.83       0.000000       0.000000       0.000000       0.000000
 24838.71       0.000000       0.000000       0.000000       0.000000
 24887.59       0.000000       0.000000       0.000000       0.000000
 24936.46       0.000000       0.000000       0.000000       0.000000
 24985.34       0.000000       0.000000       0.000000       0.000000
 25034.21       0.000000       0.000000       0.000000       0.000000
 25083.09       0.000000       0.000000       0.000000       0.000000
 25131.96       0.000000       0.000000       0.000000       0.000000
 25180.84       0.000000       0.000000       0.000000       0.000000
 25229.72       0.000000       0.000000       0.000000       0.000000
 25278.59       0.000000       0.000000       0.000000       0.000000
 25327.47       0.000000       0.000000       0.000000       0.000000
 25376.34       0.000000       0.000000       0.000000       0.000000
 25425.22       0.000000       0.000000       0.000000       0.000000
 25474.10       0.000000       0.000000       0.000000       0.000000
 25522.97       0.000000       0.000000       0.000000       0.000000
 25571.85       0.000000       0.000000       0.000000       0.000000
 25620.72       0.000000       0.000000       0.000000       0.000000
 25669.60       0.000000       0.000000       0.000000       0.000000
 25718.48       0.000000       0.000000       0.000000       0.000000
 25767.35       0.000000       0.000000       0.000000       0.000000
 25816.23       0.000000       0.000000       0.000000       0.000000
 25865.10       0.000000       0.000000       0.000000       0.000000
 25913.98       0.000000       0.000000       0.000000       0.000000
 25962.85       0.000000       0.000000       0.000000       0.000000
 26011.73       0.000000       0.000000       0.000000       0.000000
 26060.61       0.000000       0.000000       0.000000       0.000000
 26109.48       0.000000       0.000000       0.000000       0.000000
 26158.36       0.000000       0.000000       0.000000       0.000000
 26207.23       0.000000       0.000000       0.000000       0.000000
 26256.11       0.000000       0.000000       0.000000       0.000000
 26304.99       0.000000       0.000000       0.000000       0.000000
 26353.86       0.000000       0.000000       0.000000       0.000000
 26402.74       0.000000       0.000000       0.000000       0.000000
 26451.61       0.000000       0.000000       0.000000       0.000000
 26500.49       0.031385       0.029052       0.000001       0.002332
 26549.36       0.059705       0.055267       0.000002       0.004435
 26598.24       0.112085       0.103754       0.000004       0.008327
 26647.12       0.207648       0.192214       0.000008       0.015426
 26695.99       0.379625       0.351409       0.000015       0.028202
 26744.87       0.684905       0.633998       0.000027       0.050880
 26793.74       1.219417       1.128781       0.000048       0.090588
 26842.62       2.142504       1.983257       0.000084       0.159162
 26891.50       3.714821       3.438709       0.000145       0.275967
 26940.37       6.356254       5.883812       0.000248       0.472194
 26989.25      10.732768       9.935032       0.000419       0.797317
 27038.12      17.884192      16.554911       0.000699       1.328582
 27087.00      29.408573      27.222718       0.001149       2.184706
 27135.87      47.722772      44.175675       0.001864       3.545233
 27184.75      76.423065      70.742757       0.002985       5.677323
 27233.63     120.773130     111.796409       0.004718       8.972004
 27282.50     188.348979     174.349538       0.007358      13.992084
 27331.38     289.870017     268.324807       0.011323      21.533886
 27380.25     440.240911     407.519063       0.017197      32.704651
 27429.13     659.818639     610.776205       0.025775      49.016658
 27478.01     975.901168     903.365224       0.038122      72.497822
 27526.88    1424.407246    1318.535127       0.055642     105.816476
 27575.76    2051.679827    1899.184330       0.080146     152.415351
 27624.63    2916.299209    2699.539026       0.113921     216.646263
 27673.51    4090.737856    3786.685005       0.159799     303.893052
 27722.39    5662.631458    5241.744249       0.221203     420.666006
 27771.26    7735.386578    7160.437406       0.302172     574.647000
 27820.14   10427.803184    9652.734382       0.407347     774.661454
 27869.01   13872.371369   12841.277661       0.541905    1030.551804
 27917.89   18211.917120   16858.277381       0.711423    1352.928316
 27966.76   23594.332846   21840.633532       0.921679    1752.777635
 28015.64   30165.242157   27923.145937       1.178363    2240.917857
 28064.52   38058.617491   35229.829247       1.486706    2827.301538
 28113.39   47385.588435   43863.553102       1.851051    3520.184281
 28162.27   58221.933755   53894.463852       2.274358    4325.195546
 28211.14   70595.017677   65347.891815       2.757695    5244.368167
 28260.02   84471.178762   78192.677513       3.299748    6275.201501
 28308.90   99744.770581   92331.026913       3.896389    7409.847279
 28357.77  116230.149041  107591.094317       4.540367    8634.514357
 28406.65  133657.868645  123723.461342       5.221156    9929.186147
 28455.52  151676.167304  140402.511368       5.925016   11267.730920
 28504.40  169858.481911  157233.386506       6.635282   12618.460122
 28553.27  187717.260873  173764.773479       7.332911   13945.154484
 28602.15  204723.763354  189507.231245       7.997246   15208.534863
 28651.03  220332.915999  203956.200194       8.606995   16368.108810
 28699.90  234011.707615  216618.286331       9.141338   17384.279946
 28748.78  245269.116727  227038.964405       9.581093   18220.571230
 28797.65  253685.255514  234829.555654       9.909857   18845.790003
 28846.53  258937.328630  239691.257188      10.115022   19235.956419
 28895.41  260820.172610  241434.154757      10.188573   19375.829280
 28944.28  259259.554584  239989.533009      10.127610   19259.893966
 28993.16  254317.028738  235414.370980       9.934537   18892.723222
 29042.03  246185.907659  227887.612887       9.616906   18288.677866
 29090.91  235178.716099  217698.554411       9.186925   17470.974763
 29139.78  221707.262144  205228.395118       8.660682   16470.206343
 29188.66  206257.096805  190926.596404       8.057143   15322.443258
 29237.54  189358.567676  175284.086639       7.397026   14067.084011
 29286.41  171556.863292  158805.532054       6.701627   12744.629611
 29335.29  153383.382939  141982.834545       5.991706   11394.556688
 29384.16  135330.474609  125271.747285       5.286494   10053.440829
 29433.04  117831.113687  109073.062538       4.602907    8753.448241
 29481.92  101244.499847   93719.283121       3.954975    7521.261752
 29530.79   85847.960912   79467.122749       3.353531    6377.484632
 29579.67   71834.922794   66495.629753       2.806132    5336.486909
 29628.54   59318.259870   54909.287510       2.317188    4406.655172
 29677.42   48337.965076   44745.114055       1.888262    3590.962758
 29726.30   38871.889118   35982.602444       1.518489    2887.768185
 29775.17   30848.251273   28555.300660       1.205067    2291.745545
 29824.05   24158.709261   22362.908493       0.943766    1794.857002
 29872.92   18670.959273   17282.938665       0.729424    1387.291184
 29921.80   14240.081498   13181.215533       0.556386    1058.309580
 29970.67   10718.113792    9920.731945       0.418883     796.962964
 30019.55    7961.593857    7368.623311       0.311329     592.659216
 30068.43    5837.033874    5401.224691       0.228536     435.580647
 30117.30    4224.465956    3907.338030       0.165856     316.962070
 30166.18    3019.315967    2789.946843       0.119263     229.249861
 30215.05    2132.928918    1966.676341       0.085375     166.167202
 30263.93    1492.088551    1369.314972       0.061451     122.712129
 30312.81    1037.857127     942.698199       0.045350      95.113578
 30361.68     724.020517     643.217858       0.035490      80.767168
 30410.56     515.369136     437.170686       0.030795      78.167654
 30459.43     385.986177     299.106025       0.030647      86.849505
 30508.31     317.657872     210.281685       0.034842     107.341345
 30557.18     298.470434     157.292478       0.043557     141.134398
 30606.06     321.617319     130.900174       0.057322     190.659822
 30654.94     384.409205     125.066978       0.076997     259.265231
 30703.81     487.457241     136.176608       0.103741     351.176892
 30752.69     633.986749     162.416327       0.138989     471.431432
 30801.56     829.232608     203.288440       0.184406     625.759762
 30850.44    1079.867809     259.219362       0.241829     820.406618
 30899.32    1393.422384     331.237102       0.313187    1061.872095
 30948.19    1777.660205     420.692818       0.400396    1356.566991
 30997.07    2239.895172     529.008271       0.505231    1710.381670
 31045.94    2786.245315     657.437770       0.629172    2128.178373
 31094.82    3420.841886     806.840165       0.773237    2613.228484
 31143.70    4145.029240     977.462957       0.937803    3166.628479
 31192.57    4956.608116    1168.746347       1.122442    3786.739326
 31241.45    5849.187819    1379.159401       1.325769    4468.702649
 31290.32    6811.719507    1606.083116       1.545336    5204.091056
 31339.20    7828.264240    1845.739567       1.777577    5980.747096
 31388.07    8878.168895    2093.284490       2.017831    6782.866574
 31436.95    9936.384927    2342.788948       2.260434    7591.335545
 31485.83   10974.392555    2587.528581       2.498904    8384.365070
 31534.70   11961.334986    2820.228016       2.726201    9138.380768
 31583.58   12865.477051    3033.404784       2.935060    9829.137208
 31632.45   13655.864992    3219.760662       3.118362   10432.985968
 31681.33   14304.069559    3372.592661       3.269543   10928.207356
 31730.21   14785.877070    3486.191737       3.382970   11296.302363
 31779.08   15082.788729    3556.196298       3.454300   11523.138131
 31827.96   15183.198967    3579.870033       3.480750   11599.848184
 31876.83   15083.148179    3556.279384       3.461277   11523.407518
 31925.71   14786.581826    3486.354638       3.396650   11296.830537
 31974.58   14305.092260    3372.829054       3.289396   10928.973810
 32023.46   13657.166819    3220.061573       3.143637   10433.961608
 32072.34   12867.010172    3033.759156       2.964829    9830.286187
 32121.21   11963.045466    2820.623383       2.759420    9139.662663
 32170.09   10976.223490    2587.951789       2.534469    8385.737232
 32218.96    9938.279538    2343.226872       2.297245    7592.755421
 32267.84    8880.073370    2093.724691       2.054843    6784.293836
 32316.72    7830.130116    1846.170844       1.813849    5982.145423
 32365.59    6813.472115    1606.465042       1.580064    5205.427009
 32414.47    5850.797481    1379.487434       1.358311    4469.951736
 32463.34    4958.025176    1168.991346       1.152326    3787.881504
 32512.22    4146.192566     977.579129       0.964722    3167.648715
 32561.09    3421.663434     806.751207       0.797041    2614.115185
 32609.97    2786.584312     657.013669       0.649846    2128.920797
 32658.85    2239.515981     528.027163       0.522867    1710.965951
 32707.72    1776.164653     418.779294       0.415168    1356.970191
 32756.60    1390.142623     327.763973       0.325318    1062.053332
 32805.47    1073.699065     253.153717       0.251561     820.293787
 32854.35     818.375971     192.954308       0.191968     625.229696
 32903.23     615.559790     145.134856       0.144566     470.280368
 32952.10     456.914243     107.729850       0.107438     349.076955
 33000.98     334.692691      78.912801       0.078795     255.701095
 33049.85     241.938419      57.043471       0.057028     184.837921
 33098.73     172.587974      40.692231       0.040732     131.855011
 33147.61     121.496369      28.646010       0.028710      92.821649
 33196.48      84.404023      19.900494       0.019970      64.483559
 33245.36      57.864216      13.643024       0.013708      44.207484
 33294.23      39.147505       9.230060       0.009286      29.908159
 33343.11      26.136364       6.162337       0.006208      19.967819
 33391.98      17.220007       4.060070       0.004095      13.155842
 33440.86      11.196147       2.639785       0.002666       8.553695
 33489.74       7.183745       1.693756       0.001713       5.488276
 33538.61       4.548627       1.072457       0.001086       3.475083
 33587.49       2.842214       0.670126       0.000680       2.171409
 33636.36       1.752590       0.413219       0.000420       1.338952
 33685.24       1.066476       0.251449       0.000256       0.814771
 33734.12       0.640426       0.150997       0.000154       0.489275
 33782.99       0.379519       0.089481       0.000091       0.289946
 33831.87       0.221945       0.052329       0.000053       0.169562
 33880.74       0.128087       0.030200       0.000031       0.097856
 33929.62       0.072947       0.017199       0.000018       0.055731
 33978.49       0.040998       0.009666       0.000010       0.031322
 34027.37       0.022739       0.005361       0.000006       0.017372
 34076.25       0.012445       0.002934       0.000003       0.009508
 34125.12       0.006722       0.001585       0.000002       0.005136
 34174.00       0.003583       0.000845       0.000001       0.002737
 34222.87       0.001885       0.000444       0.000000       0.001440
 34271.75       0.000000       0.000000       0.000000       0.000000
 34320.63       0.000000       0.000000       0.000000       0.000000
 34369.50       0.000000       0.000000       0.000000       0.000000
 34418.38       0.000000       0.000000       0.000000       0.000000
 34467.25       0.000000       0.000000       0.000000       0.000000
 34516.13       0.000000       0.000000       0.000000       0.000000
 34565.00       0.000000       0.000000       0.000000       0.000000
 34613.88       0.000000       0.000000       0.000000       0.000000
 34662.76       0.000000       0.000000       0.000000       0.000000
 34711.63       0.000000       0.000000       0.000000       0.000000
 34760.51       0.000000       0.000000       0.000000       0.000000
 34809.38       0.000000       0.000000       0.000000       0.000000
 34858.26       0.000000       0.000000       0.000000       0.000000
 34907.14       0.000000       0.000000       0.000000       0.000000
 34956.01       0.000000       0.000000       0.000000       0.000000
 35004.89       0.000000       0.000000       0.000000       0.000000
 35053.76       0.000000       0.000000       0.000000       0.000000
 35102.64       0.000000       0.000000       0.000000       0.000000
 35151.52       0.000000       0.000000       0.000000       0.000000
 35200.39       0.000000       0.000000       0.000000       0.000000
 35249.27       0.000000       0.000000       0.000000       0.000000
 35298.14       0.000000       0.000000       0.000000       0.000000
 35347.02       0.000000       0.000000       0.000000       0.000000
 35395.89       0.000000       0.000000       0.000000       0.000000
 35444.77       0.000000       0.000000       0.000000       0.000000
 35493.65       0.000000       0.000000       0.000000       0.000000
 35542.52       0.000000       0.000000       0.000000       0.000000
 35591.40       0.000000       0.000000       0.000000       0.000000
 35640.27       0.000000       0.000000       0.000000       0.000000
 35689.15       0.000000       0.000000       0.000000       0.000000
 35738.03       0.000000       0.000000       0.000000       0.000000
 35786.90       0.000001       0.000000       0.000001       0.000000
 35835.78       0.000001       0.000000       0.000001       0.000000
 35884.65       0.000002       0.000000       0.000002       0.000000
 35933.53       0.000003       0.000000       0.000003       0.000000
 35982.40       0.000006       0.000000       0.000006       0.000000
 36031.28       0.000010       0.000000       0.000010       0.000000
 36080.16       0.000016       0.000000       0.000016       0.000000
 36129.03       0.000025       0.000000       0.000025       0.000000
 36177.91       0.000039       0.000000       0.000039       0.000000
 36226.78       0.000062       0.000000       0.000062       0.000000
 36275.66       0.000095       0.000000       0.000095       0.000000
 36324.54       0.000145       0.000000       0.000145       0.000000
 36373.41       0.000217       0.000000       0.000217       0.000000
 36422.29       0.000322       0.000000       0.000321       0.000000
 36471.16       0.000470       0.000000       0.000470       0.000000
 36520.04       0.000678       0.000000       0.000678       0.000000
 36568.91       0.000965       0.000000       0.000965       0.000000
 36617.79       0.001356       0.000000       0.001356       0.000000
 36666.67       0.001881       0.000000       0.001880       0.000000
 36715.54       0.002573       0.000000       0.002573       0.000000
 36764.42       0.003474       0.000000       0.003474       0.000000
 36813.29       0.004629       0.000001       0.004629       0.000000
 36862.17       0.006087       0.000001       0.006087       0.000000
 36911.05       0.007899       0.000001       0.007898       0.000000
 36959.92       0.010115       0.000001       0.010114       0.000000
 37008.80       0.012783       0.000001       0.012781       0.000000
 37057.67       0.015941       0.000002       0.015938       0.000000
 37106.55       0.019617       0.000002       0.019615       0.000001
 37155.43       0.023825       0.000003       0.023821       0.000001
 37204.30       0.028553       0.000003       0.028549       0.000001
 37253.18       0.033770       0.000004       0.033766       0.000001
 37302.05       0.039415       0.000004       0.039410       0.000001
 37350.93       0.045398       0.000005       0.045391       0.000001
 37399.80       0.051600       0.000006       0.051593       0.000001
 37448.68       0.057879       0.000006       0.057871       0.000002
 37497.56       0.064067       0.000007       0.064058       0.000002
 37546.43       0.069983       0.000008       0.069974       0.000002
 37595.31       0.075440       0.000008       0.075430       0.000002
 37644.18       0.080252       0.000009       0.080241       0.000002
 37693.06       0.084248       0.000009       0.084236       0.000002
 37741.94       0.087279       0.000010       0.087266       0.000002
 37790.81       0.089229       0.000010       0.089216       0.000002
 37839.69       0.090022       0.000010       0.090009       0.000002
 37888.56       0.089627       0.000010       0.089614       0.000002
 37937.44       0.088059       0.000010       0.088047       0.000002
 37986.31       0.085380       0.000009       0.085369       0.000002
 38035.19       0.081694       0.000009       0.081683       0.000002
 38084.07       0.077139       0.000009       0.077127       0.000003
 38132.94       0.071880       0.000008       0.071868       0.000004
 38181.82       0.066098       0.000007       0.066086       0.000005
 38230.69       0.059984       0.000007       0.059969       0.000008
 38279.57       0.053721       0.000006       0.053702       0.000013
 38328.45       0.047484       0.000006       0.047458       0.000021
 38377.32       0.041429       0.000005       0.041387       0.000036
 38426.20       0.035685       0.000005       0.035619       0.000062
 38475.07       0.030361       0.000005       0.030250       0.000105
 38523.95       0.025537       0.000005       0.025353       0.000178
 38572.83       0.021273       0.000007       0.020969       0.000297
 38621.70       0.017614       0.000009       0.017115       0.000489
 38670.58       0.014595       0.000014       0.013786       0.000796
 38719.45       0.012257       0.000021       0.010958       0.001279
 38768.33       0.010655       0.000032       0.008596       0.002028
 38817.20       0.009876       0.000049       0.006654       0.003173
 38866.08       0.010058       0.000075       0.005084       0.004900
 38914.96       0.011414       0.000113       0.003834       0.007467
 38963.83       0.014254       0.000170       0.002854       0.011230
 39012.71       0.019017       0.000252       0.002098       0.016667
 39061.58       0.026304       0.000369       0.001524       0.024411
 39110.46       0.036912       0.000533       0.001096       0.035282
 39159.34       0.051868       0.000761       0.000783       0.050324
 39208.21       0.072464       0.001071       0.000560       0.070833
 39257.09       0.100284       0.001488       0.000407       0.098389
 39305.96       0.137215       0.002040       0.000308       0.134867
 39354.84       0.185450       0.002760       0.000253       0.182436
 39403.71       0.247456       0.003685       0.000235       0.243536
 39452.59       0.325927       0.004856       0.000249       0.320821
 39501.47       0.423682       0.006315       0.000296       0.417070
 39550.34       0.543544       0.008105       0.000378       0.535061
 39599.22       0.688163       0.010266       0.000499       0.677398
 39648.09       0.859814       0.012832       0.000668       0.846315
 39696.97       1.060163       0.015829       0.000895       1.043439
 39745.85       1.290012       0.019271       0.001193       1.269548
 39794.72       1.549059       0.023154       0.001577       1.524328
 39843.60       1.835675       0.027457       0.002066       1.806153
 39892.47       2.146733       0.032134       0.002677       2.111922
 39941.35       2.477510       0.037117       0.003433       2.436960
 39990.22       2.821687       0.042314       0.004354       2.775018
 40039.10       3.171462       0.047612       0.005459       3.118390
 40087.98       3.517782       0.052878       0.006767       3.458137
 40136.85       3.850689       0.057964       0.008291       3.784434
 40185.73       4.159776       0.062717       0.010039       4.087021
 40234.60       4.434712       0.066983       0.012010       4.355719
 40283.48       4.665811       0.070618       0.014196       4.580996
 40332.36       4.853693       0.076234       0.016578       4.760880
 40381.23       4.981503       0.080684       0.019121       4.881697
 40430.11       5.052417       0.086237       0.021784       4.944396
 40478.98       5.069594       0.094446       0.024536       4.950611
 40527.86       5.042548       0.108058       0.027286       4.907204
 40576.74       4.989762       0.131769       0.029982       4.828011
 40625.61       4.942485       0.173451       0.032566       4.736468
 40674.49       4.950758       0.246054       0.034989       4.669715
 40723.36       5.092762       0.370551       0.037232       4.684979
 40772.24       5.489101       0.580395       0.039317       4.869388
 40821.11       6.324259       0.928137       0.041337       5.354786
 40869.99       7.878111       1.495064       0.043489       6.339559
 40918.87      10.571196       2.404968       0.046130       8.120099
 40967.74      15.028297       3.843393       0.049846      11.135058
 41016.62      22.165672       6.083970       0.055558      16.026144
 41065.49      33.307884       9.523612       0.064662      23.719610
 41114.37      50.340384      14.728440       0.079227      35.532717
 41163.25      75.903503      22.492120       0.102262      53.309121
 41212.12     113.631979      33.907870       0.138061      79.586047
 41261.00     168.441268      50.454514       0.192654     117.794100
 41309.87     246.857190      74.095532       0.274367     172.487291
 41358.75     357.378851     107.388103       0.394506     249.596241
 41407.62     510.856099     153.596489       0.568157     356.691454
 41456.50     720.852259     216.800953       0.815086     503.236220
 41505.38    1003.951237     301.989921       1.160708     700.800608
 41554.25    1379.956379     415.119543       1.637056     963.199781
 41603.13    1871.918327     563.121780       2.283663    1306.512884
 41652.00    2505.922629     753.840212       3.148240    1748.934177
 41700.88    3310.567390     995.872584       4.286991    2310.407815
 41749.76    4316.069105    1298.301536       5.764409    3012.003160
 41798.63    5552.952947    1670.300380       7.652347    3875.000220
 41847.51    7050.313330    2120.609711      10.028223    4919.675396
 41896.38    8833.671087    2656.892822      12.972188    6163.806078
 41945.26   10922.503315    3284.992863      16.563193    7620.947260
 41994.13   13327.576649    4008.131115      20.873960    9298.571574
 42043.01   16048.268768    4826.102018      25.964979   11196.201772
 42091.89   19070.108978    5734.534391      31.877796   13303.696791
 42140.76   22362.798753    6724.297329      38.627980   15599.873444
 42189.64   25878.979825    7781.131190      46.198326   18051.650308
 42238.51   29553.994787    8885.577281      54.532911   20613.884595
 42287.39   33306.830674   10013.263405      63.532700   23230.034569
 42336.27   37042.350612   11135.576717      73.053383   25833.720513
 42385.14   40654.808272   12220.722122      82.906024   28351.180125
 42434.02   44032.514511   13235.126765      92.860930   30704.526816
 42482.89   47063.398949   14145.113053     102.654894   32815.631002
 42531.77   49641.096682   14918.728894     112.001684   34610.366104
 42580.65   51671.107233   15527.598848     120.605280   36022.903104
 42629.52   53076.531918   15948.647713     128.175089   36999.709115
 42678.40   53802.905144   16165.550904     134.442063   37502.912177
 42727.27   53821.696777   16169.784646     139.174502   37512.737629
 42776.15   53132.171656   15961.181807     142.192246   37028.797603
 42825.02   51761.437331   15547.942845     143.378056   36070.116430
 42873.90   49762.675681   14946.100872     142.685168   34673.889641
 42922.78   47211.719233   14178.489478     140.140355   32893.089400
 42971.65   44202.279371   13273.305930     135.842209   30793.131232
 43020.53   40840.244772   12262.395704     129.954800   28447.894268
 43069.40   37237.532577   11179.403515     122.697283   25935.431778
 43118.28   33505.986874   10057.939550     114.330367   23333.716957
 43167.16   29751.780548    8929.897908     105.140805   20716.741835
 43216.03   26070.695360    7824.039790      95.425206   18151.230364
 43264.91   22544.543743    6764.920406      85.474409   15694.148928
 43313.78   19238.869534    5772.200610      75.559558   13391.109366
 43362.66   16201.939120    4860.346438      65.920753   11275.671929
 43411.53   13464.923080    4038.686297      56.758841    9369.477942
 43460.41   11043.081634    3311.769489      48.230603    7683.081542
 43509.29    8937.710995    2679.952929      40.447241    6217.310825
 43558.16    7138.583582    2140.135727      33.475833    4964.972022
 43607.04    5626.620294    1686.562944      27.343207    3912.714143
 43655.91    4376.562059    1311.628599      22.041562    3042.891898
 43704.79    3359.453287    1006.621698      17.535150    2335.296440
 43753.67    2544.803589     762.375242      13.767343    1768.661004
 43802.54    1902.349003     569.794652      10.667525    1321.886826
 43851.42    1403.383962     420.257082       8.157358     974.969521
 43900.29    1021.676343     305.885437       6.156121     709.634785
 43949.17     734.008032     219.709911       4.584964     509.713157
 43998.04     520.402138     155.735487       3.370042     361.296609
 44046.92     364.106355     108.936298       2.444583     252.725474
 44095.80     251.401880      75.197730       1.750024     174.454126
 44144.67     171.301045      51.225232       1.236381     118.839432
 44193.55     115.186848      34.435804       0.862044      79.889000
 44242.42      76.435891      22.844603       0.593164      52.998124
 44291.30      50.054543      14.955609       0.402798      34.696136
 44340.18      32.347563       9.662103       0.269941      22.415520
 44389.05      20.629644       6.160080       0.178532      14.291033
 44437.93      12.983572       3.875682       0.116528       8.991363
 44486.80       8.063974       2.406340       0.075060       5.582574
 44535.68       4.942615       1.474392       0.047715       3.420508
 44584.56       2.989629       0.891489       0.029934       2.068206
 44633.43       1.784560       0.531944       0.018533       1.234082
 44682.31       1.051231       0.313230       0.011324       0.726677
 44731.18       0.611109       0.182015       0.006828       0.422266
 44780.06       0.350585       0.104376       0.004063       0.242146
 44828.93       0.198520       0.059066       0.002424       0.137030
 44877.81       0.110965       0.032986       0.001455       0.076525
 44926.69       0.061278       0.018178       0.000926       0.042173
 44975.56       0.033519       0.009886       0.000697       0.022936
 45024.44       0.018322       0.005306       0.000706       0.012310
 45073.31       0.010292       0.002810       0.000962       0.006520
 45122.19       0.001545       0.000000       0.001544       0.000001
 45171.07       0.002625       0.000000       0.002624       0.000001
 45219.94       0.004505       0.000000       0.004504       0.000001
 45268.82       0.007677       0.000001       0.007673       0.000002
 45317.69       0.012965       0.000001       0.012960       0.000004
 45366.57       0.021611       0.000003       0.021602       0.000006
 45415.44       0.035548       0.000005       0.035533       0.000010
 45464.32       0.057703       0.000008       0.057679       0.000017
 45513.20       0.092436       0.000013       0.092396       0.000027
 45562.07       0.146125       0.000022       0.146061       0.000042
 45610.95       0.227960       0.000036       0.227858       0.000066
 45659.82       0.350945       0.000059       0.350784       0.000102
 45708.70       0.533173       0.000095       0.532921       0.000156
 45757.58       0.799362       0.000152       0.798974       0.000236
 45806.45       1.182679       0.000239       1.182089       0.000351
 45855.33       1.726784       0.000373       1.725896       0.000515
 45904.20       2.488035       0.000573       2.486716       0.000747
 45953.08       3.537715       0.000869       3.535777       0.001069
 46001.96       4.964058       0.001303       4.961244       0.001511
 46050.83       6.873829       0.001930       6.869790       0.002108
 46099.71       9.393088       0.002823       9.387359       0.002905
 46148.58      12.666773       0.004078      12.658741       0.003953
 46197.46      16.856661       0.005817      16.845533       0.005312
 46246.33      22.137328       0.008193      22.122087       0.007049
 46295.21      28.689765       0.011396      28.669133       0.009237
 46344.09      36.692476       0.015651      36.664872       0.011954
 46392.96      46.310064       0.021223      46.273562       0.015279
 46441.84      57.679591       0.028416      57.631886       0.019289
 46490.71      70.895312       0.037564      70.833695       0.024053
 46539.59      85.992689       0.049025      85.914036       0.029628
 46588.47     102.932932       0.063167     102.833715       0.036050
 46637.34     121.589511       0.080351     121.465827       0.043333
 46686.22     141.738222       0.100900     141.585863       0.051459
 46735.09     163.052374       0.125080     162.866919       0.060374
 46783.97     185.104394       0.153064     184.881344       0.069986
 46832.84     207.374802       0.184898     207.109745       0.080159
 46881.72     229.268882       0.220475     228.957687       0.090720
 46930.60     250.140692       0.259505     249.779731       0.101455
 46979.47     269.323306       0.301497     268.909687       0.112122
 47028.35     286.163447       0.345751     285.695244       0.122451
 47077.22     300.058067       0.391364     299.534540       0.132163
 47126.10     310.490064       0.437249     309.911839       0.140975
 47174.98     317.060182       0.482172     316.429392       0.148619
 47223.85     319.513682       0.525706     318.832722       0.155255
 47272.73     317.752827       0.565479     317.027119       0.160230
 47321.60     311.848502       0.600936     311.083830       0.163735
 47370.48     302.032695       0.631389     301.235396       0.165910
 47419.35     288.684394       0.656715     287.860550       0.167129
 47468.23     272.305852       0.677677     271.460061       0.168115
 47517.11     253.492148       0.696382     252.625644       0.170122
 47565.98     232.896819       0.716952     232.004652       0.175216
 47614.86     211.196676       0.746522     210.263454       0.186700
 47663.73     189.058868       0.796713     188.052378       0.209776
 47712.61     167.113057       0.885832     165.974705       0.252520
 47761.49     145.931023       1.042045     144.561670       0.327308
 47810.36     126.015485       1.307936     124.254681       0.452868
 47859.24     107.799283       1.746901     105.395230       0.657152
 47908.11      91.656049       2.452246      88.222250       0.981554
 47956.99      77.919320       3.557958      72.876055       1.485308
 48005.87      66.916578       5.255429      59.407613       2.253536
 48054.74      59.009354       7.812364      47.791596       3.405393
 48103.62      54.644036      11.597290      37.941638       5.105109
 48152.49      54.410102      17.108739      29.726304       7.575059
 48201.37      59.104361      25.008971      22.984520      11.110871
 48250.24      69.798881      36.161248      17.539478      16.098155
 48299.12      87.909300      51.668856      13.210390      23.030053
 48348.00     115.259050      72.912947       9.821754      32.524349
 48396.87     154.133608     101.585169       7.210090      45.338349
 48445.75     207.317398     139.709835       5.228298      62.379264
 48494.62     278.104664     189.649365       3.747958      84.707341
 48543.50     370.274801     254.086109       2.659952     113.528741
 48592.38     488.022562     335.973570       1.873834     150.175157
 48641.25     635.834723     438.450883       1.316344     196.067496
 48690.13     818.321480     564.728776       0.929407     252.663297
 48739.00    1039.928877     717.881260       0.667905     321.379711
 48787.88    1304.695638     900.687981       0.497454     403.510204
 48836.75    1615.875374    1115.364868       0.392296     500.118210
 48885.63    1975.573328    1363.312539       0.333438     611.927351
 48934.51    2384.376972    1644.858680       0.307055     739.211237
 48983.38    2841.021336    1959.024549       0.303173     881.693614
 49032.26    3342.126862    2303.342303       0.314625    1038.469934
 49081.13    3882.048428    2673.750721       0.336243    1207.961464
 49130.01    4452.870927    3064.594913       0.364263    1387.911751
 49178.89    5044.579149    3468.750643       0.395891    1575.432615
 49227.76    5645.417886    3877.886023       0.429017    1767.102847
 49276.64    6242.443249    4282.863287       0.462016    1959.117946
 49325.51    6822.249599    4674.272109       0.493649    2147.483841
 49374.39    7371.840344    5043.074815       0.522997    2328.242532
 49423.26    7879.597154    5381.334311       0.549444    2497.713399
 49472.14    8336.292935    5682.988772       0.572681    2652.731483
 49521.02    8736.093302    5944.636573       0.592712    2790.864017
 49569.89    9077.475995    6166.280230       0.609876    2910.585890
 49618.77    9364.053910    6352.023598       0.624847    3011.405464
 49667.64    9605.226446    6510.660109       0.638630    3093.927706
 49716.52    9816.663472    6656.153460       0.652645    3159.857366
 49765.40   10020.599487    6807.984880       0.668556    3211.946051
 49814.27   10245.933750    6991.351635       0.688379    3253.893736
 49863.15   10528.128302    7237.195911       0.714421    3290.217971
 49912.02   10908.887540    7582.033933       0.749239    3326.104368
 49960.90   11435.587416    8067.542297       0.795598    3367.249521
 50009.78   12160.403886    8739.844686       0.856412    3419.702788
 50058.65   13139.073755    9648.431818       0.934662    3489.707275
 50107.53   14429.212753   10844.645278       1.033300    3583.534175
 50156.40   16088.121833   12379.666955       1.155118    3707.299759
 50205.28   18170.038564   14301.983800       1.302597    3866.752167
 50254.15   20722.838736   16654.344375       1.477721    4067.016640
 50303.03   23784.263122   19470.287986       1.681777    4312.293359
 50351.91   27377.830606   22770.404156       1.915141    4605.511308
 50400.78   31508.692114   26558.561649       2.177072    4947.953392
 50449.66   36159.766902   30818.420677       2.465528    5338.880697
 50498.53   41288.568514   35510.596377       2.777032    5775.195105
 50547.41   46825.156927   40570.863179       3.106614    6251.187134
 50596.29   52671.633408   45909.767660       3.447834    6758.417914
 50645.16   58703.517999   51413.945770       3.792930    7285.779299
 50694.04   64773.215980   56949.319121       4.133060    7819.763800
 50742.91   70715.597564   62366.181770       4.458670    8344.957124
 50791.79   76355.500966   67505.998590       4.759950    8844.742426
 50840.66   81516.746736   72209.539649       5.027357    9302.179730
 50889.54   86032.048693   76325.796760       5.252165    9700.999768
 50938.42   89753.052400   79720.993282       5.427004   10026.632113
 50987.29   92559.650460   82286.927997       5.546333   10267.176130
 51036.17   94367.731703   83947.902938       5.606805   10414.221960
 51085.04   95134.624374   84665.578450       5.607497   10463.438427
 51133.92   94861.684890   84441.270195       5.549964   10414.864730
 51182.80   93593.744548   83315.435417       5.438123   10272.871007
 51231.67   91415.427550   81364.363531       5.277967   10045.786052
 51280.55   88444.659454   78694.357747       5.077138    9745.224568
 51329.42   84823.958933   75433.937349       4.844390    9385.177194
 51378.30   80710.314626   71724.775333       4.588999    8980.950294
 51427.17   76264.568336   67712.191868       4.320164    8548.056303
 51476.05   71641.243273   63536.039073       4.046455    8101.157746
 51524.93   66979.671974   59322.737760       3.775350    7653.158864
 51573.80   62397.106361   55179.073902       3.512897    7214.519562
 51622.68   57984.256249   51188.152964       3.263521    6792.839764
 51671.55   53803.433142   47407.671348       3.029974    6392.731820
 51720.43   49889.206707   43870.425253       2.813431    6015.968024
 51769.31   46251.242880   40586.765901       2.613693    5661.863285
 51818.18   42878.810016   37548.548159       2.429487    5327.832370
 51867.06   39746.329006   34734.021375       2.258799    5010.048833
 51915.93   36819.310635   32113.081842       2.099229    4704.129563
 51964.81   34060.064569   29652.342003       1.948319    4405.774248
 52013.69   31432.672366   27319.563186       1.803828    4111.305352
 52062.56   28906.826815   25087.113527       1.663941    3818.049347
 52111.44   26460.395571   22934.288984       1.527396    3524.579191
 52160.31   24080.600662   20848.437343       1.393533    3230.769786
 52209.19   21763.965621   18824.988755       1.262274    2937.714592
 52258.06   19515.234542   16866.578280       1.134040    2647.522223
 52306.94   17345.555710   14981.513253       1.009633    2363.032824
 52355.82   15270.248820   13181.863354       0.890096    2087.495370
 52404.69   13306.463898   11481.442240       0.776572    1824.245086
 52453.57   11470.997583    9893.912972       0.670168    1576.414443
 52502.44    9778.468784    8431.194108       0.571853    1346.702823
 52551.32    8239.981953    7102.279087       0.482379    1137.220487
 52600.20    6862.332652    5912.517253       0.402242     949.413157
 52649.07    5647.745167    4863.348094       0.331670     784.065403
 52697.95    4594.081036    3952.435707       0.270646     641.374683
 52746.82    3695.426734    3174.122603       0.218952     521.085180
 52795.70    2942.943894    2520.103012       0.176233     422.664649
 52844.57    2325.880455    1980.223523       0.142073     345.514859
 52893.45    1832.634487    1543.319145       0.116075     289.199267
 52942.33    1451.791733    1198.015262       0.097945     253.678526
 52991.20    1173.074456     933.442979       0.087570     239.543908
 53040.08     988.159674     739.834849       0.085095     248.239730
 53088.95     891.341045     608.984564       0.090989     282.265493
 53137.83     880.019555     534.566692       0.106095     345.346768
 53186.71     955.013383     512.320510       0.131674     442.561200
 53235.58    1120.677720     540.105598       0.169419     580.402703
 53284.46    1384.822410     617.837180       0.221452     766.763778
 53333.33    1758.411573     747.307453       0.290287    1010.813834
 53382.21    2255.027146     931.896947       0.378756    1322.751442
 53431.09    2890.080234    1176.178724       0.489898    1713.411612
 53479.96    3679.753171    1485.411091       0.626794    2193.715287
 53528.84    4639.737845    1864.978739       0.792373    2773.966732
 53577.71    5783.640790    2319.654809       0.989166    3462.996816
 53626.59    7121.346322    2852.916829       1.219030    4267.210463
 53675.46    8657.232819    3466.178661       1.482872    5189.571285
 53724.34   10388.451219    4158.065010       1.780361    6228.605848
 53773.22   12303.395042    4923.770708       2.109683    7377.514651
 53822.09   14380.523537    5754.568186       2.467354    8623.487997
 53870.97   16587.699501    6637.526492       2.848120    9947.324889
 53919.84   18882.184768    7555.497881       3.244964   11323.441923
 53968.72   21211.398037    8487.412815       3.649251   12720.335970
 54017.60   23514.482968    9408.901694       4.051002   14101.530272
 54066.47   25724.663452   10293.233376       4.439303   15426.990773
 54115.35   27772.284517   11112.529337       4.802823   16654.952356
 54164.22   29588.360295   11839.181620       5.130425   17744.048250
 54213.10   31108.384521   12447.376426       5.411816   18655.596279
 54261.97   32276.113268   12914.607039       5.638126   19355.868104
 54310.85   33047.020580   13223.052727       5.802547   19818.165306
 54359.73   33391.086661   13360.703805       5.900737   20024.482119
 54408.60   33294.778300   13322.143629       5.931135   19966.703536
 54457.48   32761.901816   13108.891531       5.895077   19647.115208
 54506.35   31813.369599   12729.311540       5.796720   19078.261339
 54555.23   30485.839048   12198.065383       5.642795   18282.130870
 54604.11   28829.368259   11535.172916       5.442200   17288.753144
 54652.98   26904.295892   10764.761230       5.205486   16134.329176
 54701.86   24777.618462    9913.611322       4.944292   14859.062848
 54750.73   22519.170847    9009.624068       4.670774   13504.876005
 54799.61   20197.915919    8080.327053       4.397107   12113.191759
 54848.48   17878.619004    7151.531445       4.135096   10722.952464
 54897.36   15619.127942    6246.225799       3.895945    9369.006198
 54946.24   13468.408142    5383.764770       3.690210    8080.953161
 54995.11   11465.403810    4579.379066       3.527956    6882.496787
 55043.99    9638.720635    3844.002338       3.419106    5791.299191
 55092.86    8007.059712    3184.384369       3.373984    4819.301359
 55141.74    6580.282666    2603.440123       3.404024    3973.438519
 55190.62    5360.956599    2100.772224       3.522605    3256.661770
 55239.49    4346.214383    1673.300278       3.745976    2669.168130
 55288.37    3529.768482    1315.933304       4.094218    2209.740961
 55337.24    2903.930735    1022.229841       4.592171    1877.108723
 55386.12    2461.511542     785.002156       5.270251    1671.239135
 55435.00    2197.494914     596.834413       6.165038    1594.495463
 55483.87    2110.407124     450.497954       7.319544    1652.589626
 55532.75    2203.313977     339.258644       8.783000    1855.272333
 55581.62    2484.394310     257.080629      10.610038    2216.703643
 55630.50    2967.046504     198.737568      12.859126    2755.449810
 55679.37    3669.492887     159.846313      15.590153    3494.056421
 55728.25    4613.857345     136.839624      18.861114    4458.156607
 55777.13    5824.707662     126.894256      22.723902    5675.089504
 55826.00    7327.078890     127.829286      27.219336    7172.030268
 55874.88    9144.028841     137.987425      32.371661    8973.669755
 55923.75   11293.821005     156.109773      38.182856   11099.528375
 55972.63   13786.880985     181.212320      44.627244   13561.041421
 56021.51   16622.724512     212.470700      51.646912   16358.606900
 56070.38   19787.101195     249.118270      59.148551   19478.834375
 56119.26   23249.629951     290.361479      67.002255   22892.266217
 56168.13   26962.211522     335.315585      75.042928   26551.853008
 56217.01   30858.482419     382.962887      83.073664   30392.445869
 56265.88   34854.524521     432.134685      90.873216   34331.516620
 56314.76   38850.954185     481.517061      98.204923   38271.232201
 56363.64   42736.405187     529.679199     104.828289   42101.897699
 56412.51   46392.285975     575.121561     110.511872   45706.652543
 56461.39   49698.556849     616.339725     115.046663   48967.170461
 56510.26   52540.149164     651.898388     118.258912   51769.991865
 56559.14   54813.553952     680.509059     120.021362   54013.023531
 56608.02   56433.055484     701.104518     120.261961   55611.689005
 56656.89   57336.086053     712.903222     118.969353   56504.213478
 56705.77   57487.234770     715.457686     116.194744   56655.582341
 56754.64   56880.551726     708.682265     112.050129   56059.819331
 56803.52   55539.935616     692.856631     106.703239   54740.375745
 56852.39   53517.586033     668.611173     100.369914   52748.604946
 56901.27   50890.616803     636.877733      93.304901   50160.434169
 56950.15   47756.200774     598.836238      85.792255   47071.572281
 56999.02   44225.619549     555.840058      78.136566   43591.642925
 57047.90   40417.750830     509.336470      70.656149   39837.758210
 57096.77   36452.518203     460.786734      63.679146   35928.052323
 57145.65   32444.800767     411.591824      57.543119   31975.665823
 57194.53   28499.220179     363.028918      52.598351   28083.592910
 57243.40   24706.108036     316.202283      49.214537   24340.691216
 57292.28   21138.822938     272.010596      47.790099   20819.022242
 57341.15   17852.450868     231.131076      48.762805   17572.556988
 57390.03   14883.799741     194.019286      52.619988   14637.160467
 57438.91   12252.500949     160.922346      59.906259   12031.672344
 57487.78    9962.964720     131.902445      71.226416    9759.835859
 57536.66    8006.904436     106.867239      87.241208    7812.795989
 57585.53    6366.145789      85.603705     108.653826    6171.888258
 57634.41    5015.464193      67.812396     136.185438    4811.466360
 57683.28    3925.240571      53.139598     170.538872    3701.562101
 57732.16    3063.783065      41.205601     212.350575    2810.226889
 57781.04    2399.222269      31.627973     262.132285    2105.462011
 57829.91    1900.943567      24.039424     320.205269    1556.698874
 57878.79    1540.567340      18.100358     386.631492    1135.835490
 57927.66    1292.523230      13.506606     461.147353     817.869271
 57976.54    1134.287666       9.993120     543.106617     581.187929
 58025.42    1046.364917       7.334474     631.439608     407.590834
 58074.29    1012.092934       5.343070     724.635401     282.114463
 58123.17    1017.348450       3.865822     820.752706     192.729922
 58172.04    1050.213757       2.780028     917.463181     129.970549
 58220.92    1100.652653       1.988923    1012.128289      86.535440
 58269.79    1160.227383       1.417326    1101.907680      56.902377
 58318.67    1221.873544       1.007609    1183.893763      36.972172
 58367.55    1279.737078       0.716142    1255.264036      23.756900
 58416.42    1329.067438       0.510264    1313.440220      15.116954
 58465.30    1366.154077       0.365775    1356.241740       9.546562
 58514.17    1388.289621       0.264919    1382.020793       6.003909
 58563.05    1393.742244       0.194786    1389.767283       3.780174
 58611.93    1381.721384       0.146076    1379.174278       2.401030
 58660.80    1352.324439       0.112152    1350.658026       1.554261
 58709.68    1306.456757       0.088323    1305.330704       1.037730
 58758.55    1245.722408       0.071315    1244.928351       0.722742
 58807.43    1172.288126       0.058871    1171.700490       0.528765
 58856.30    1088.726989       0.049459    1088.271221       0.406309
 58905.18     997.851316       0.042060     997.483702       0.325554
 58954.06     902.545752       0.036011     902.240825       0.268916
 59002.93     805.611563       0.030895     805.354382       0.226287
 59051.81     709.631863       0.026454     709.413384       0.192025
 59100.68     616.859159       0.022466     616.679391       0.157303
 59149.56     529.167908       0.019024     529.013950       0.134934
 59198.44     447.969665       0.015957     447.839483       0.114225
 59247.31     374.240913       0.013244     374.132247       0.095422
 59296.19     308.532849       0.010868     308.443314       0.078667
 59345.06     251.014602       0.008813     250.941790       0.064000
 59393.94     201.531971       0.007059     201.473529       0.051383
 59442.82     159.674757       0.005584     159.628463       0.040710
 59491.69     124.846361       0.004361     124.810170       0.031830
 59540.57      96.330275       0.003362      96.302353       0.024560
 59589.44      73.349468       0.002559      73.328209       0.018701
 59638.32      55.116086       0.001922      55.100113       0.014052
 59687.19      40.870221       0.001424      40.858377       0.010420
 59736.07      29.907686       0.001042      29.899019       0.007625
 59784.95      21.597616       0.000752      21.591358       0.005506
 59833.82      15.391325       0.000536      15.386865       0.003924
 59882.70      10.824139       0.000377      10.821002       0.002760
 59931.57       7.512039       0.000262       7.509862       0.001915
 59980.45       5.144812       0.000179       5.143321       0.001312
 60029.33       3.477189       0.000121       3.476181       0.000886
 60078.20       2.319178       0.000081       2.318506       0.000591
 60127.08       1.526466       0.000053       1.526024       0.000389
 60175.95       0.991488       0.000035       0.991200       0.000253
 60224.83       0.635528       0.000022       0.635344       0.000162
 60273.70       0.402003       0.000014       0.401886       0.000102
 60322.58       0.250940       0.000009       0.250868       0.000064
 60371.46       0.154582       0.000005       0.154537       0.000039
 60420.33       0.093971       0.000003       0.093944       0.000024
 60469.21       0.056374       0.000002       0.056357       0.000014
 60518.08       0.033374       0.000001       0.033364       0.000009
 60566.96       0.019498       0.000001       0.019492       0.000005
 60615.84       0.011241       0.000000       0.011238       0.000003
 60664.71       0.006396       0.000000       0.006394       0.000002
 60713.59       0.003591       0.000000       0.003590       0.000001
 60762.46       0.001990       0.000000       0.001989       0.000001
 60811.34       0.001088       0.000000       0.001088       0.000000
 60860.22       0.000587       0.000000       0.000587       0.000000
 60909.09       0.000313       0.000000       0.000312       0.000000
 60957.97       0.000164       0.000000       0.000164       0.000000
 61006.84       0.000000       0.000000       0.000000       0.000000
 61055.72       0.000000       0.000000       0.000000       0.000000
 61104.59       0.000000       0.000000       0.000000       0.000000
 61153.47       0.000000       0.000000       0.000000       0.000000
 61202.35       0.000000       0.000000       0.000000       0.000000
 61251.22       0.000000       0.000000       0.000000       0.000000
 61300.10       0.000000       0.000000       0.000000       0.000000
 61348.97       0.000000       0.000000       0.000000       0.000000
 61397.85       0.000000       0.000000       0.000000       0.000000
 61446.73       0.000000       0.000000       0.000000       0.000000
 61495.60       0.000000       0.000000       0.000000       0.000000
 61544.48       0.000000       0.000000       0.000000       0.000000
 61593.35       0.000000       0.000000       0.000000       0.000000
 61642.23       0.000000       0.000000       0.000000       0.000000
 61691.10       0.000000       0.000000       0.000000       0.000000
 61739.98       0.000000       0.000000       0.000000       0.000000
 61788.86       0.000000       0.000000       0.000000       0.000000
 61837.73       0.000000       0.000000       0.000000       0.000000
 61886.61       0.000000       0.000000       0.000000       0.000000
 61935.48       0.000000       0.000000       0.000000       0.000000
 61984.36       0.000000       0.000000       0.000000       0.000000
 62033.24       0.000000       0.000000       0.000000       0.000000
 62082.11       0.000000       0.000000       0.000000       0.000000
 62130.99       0.000000       0.000000       0.000000       0.000000
 62179.86       0.000000       0.000000       0.000000       0.000000
 62228.74       0.000000       0.000000       0.000000       0.000000
 62277.61       0.000000       0.000000       0.000000       0.000000
 62326.49       0.000000       0.000000       0.000000       0.000000
 62375.37       0.000000       0.000000       0.000000       0.000000
 62424.24       0.000000       0.000000       0.000000       0.000000
 62473.12       0.000000       0.000000       0.000000       0.000000
 62521.99       0.000000       0.000000       0.000000       0.000000
 62570.87       0.000000       0.000000       0.000000       0.000000
 62619.75       0.000000       0.000000       0.000000       0.000000
 62668.62       0.000000       0.000000       0.000000       0.000000
 62717.50       0.000000       0.000000       0.000000       0.000000
 62766.37       0.000000       0.000000       0.000000       0.000000
 62815.25       0.000000       0.000000       0.000000       0.000000
 62864.13       0.000000       0.000000       0.000000       0.000000
 62913.00       0.000000       0.000000       0.000000       0.000000
 62961.88       0.000000       0.000000       0.000000       0.000000
 63010.75       0.000000       0.000000       0.000000       0.000000
 63059.63       0.000000       0.000000       0.000000       0.000000
 63108.50       0.000000       0.000000       0.000000       0.000000
 63157.38       0.000000       0.000000       0.000000       0.000000
 63206.26       0.000000       0.000000       0.000000       0.000000
 63255.13       0.000000       0.000000       0.000000       0.000000
 63304.01       0.000000       0.000000       0.000000       0.000000
 63352.88       0.000000       0.000000       0.000000       0.000000
 63401.76       0.000000       0.000000       0.000000       0.000000
 63450.64       0.000000       0.000000       0.000000       0.000000
 63499.51       0.000000       0.000000       0.000000       0.000000
 63548.39       0.000000       0.000000       0.000000       0.000000
 63597.26       0.000000       0.000000       0.000000       0.000000
 63646.14       0.000000       0.000000       0.000000       0.000000
 63695.01       0.000000       0.000000       0.000000       0.000000
 63743.89       0.000000       0.000000       0.000000       0.000000
 63792.77       0.000000       0.000000       0.000000       0.000000
 63841.64       0.000000       0.000000       0.000000       0.000000
 63890.52       0.000000       0.000000       0.000000       0.000000
 63939.39       0.000000       0.000000       0.000000       0.000000
 63988.27       0.000000       0.000000       0.000000       0.000000
 64037.15       0.000000       0.000000       0.000000       0.000000
 64086.02       0.000000       0.000000       0.000000       0.000000
 64134.90       0.000000       0.000000       0.000000       0.000000
 64183.77       0.000000       0.000000       0.000000       0.000000
 64232.65       0.000000       0.000000       0.000000       0.000000
 64281.52       0.000000       0.000000       0.000000       0.000000
 64330.40       0.000000       0.000000       0.000000       0.000000
 64379.28       0.000000       0.000000       0.000000       0.000000
 64428.15       0.000000       0.000000       0.000000       0.000000
 64477.03       0.000000       0.000000       0.000000       0.000000
 64525.90       0.000000       0.000000       0.000000       0.000000
 64574.78       0.000000       0.000000       0.000000       0.000000
 64623.66       0.000000       0.000000       0.000000       0.000000
 64672.53       0.000000       0.000000       0.000000       0.000000
 64721.41       0.000000       0.000000       0.000000       0.000000
 64770.28       0.000000       0.000000       0.000000       0.000000
 64819.16       0.000000       0.000000       0.000000       0.000000
 64868.04       0.000000       0.000000       0.000000       0.000000
 64916.91       0.000000       0.000000       0.000000       0.000000
 64965.79       0.000000       0.000000       0.000000       0.000000
 65014.66       0.000000       0.000000       0.000000       0.000000
 65063.54       0.000000       0.000000       0.000000       0.000000
 65112.41       0.000000       0.000000       0.000000       0.000000
 65161.29       0.000000       0.000000       0.000000       0.000000
 65210.17       0.000000       0.000000       0.000000       0.000000
 65259.04       0.000000       0.000000       0.000000       0.000000
 65307.92       0.000000       0.000000       0.000000       0.000000
 65356.79       0.000000       0.000000       0.000000       0.000000
 65405.67       0.000000       0.000000       0.000000       0.000000
 65454.55       0.000000       0.000000       0.000000       0.000000
 65503.42       0.000000       0.000000       0.000000       0.000000
 65552.30       0.000000       0.000000       0.000000       0.000000
 65601.17       0.000000       0.000000       0.000000       0.000000
 65650.05       0.000000       0.000000       0.000000       0.000000
 65698.92       0.000000       0.000000       0.000000       0.000000
 65747.80       0.000000       0.000000       0.000000       0.000000
 65796.68       0.000000       0.000000       0.000000       0.000000
 65845.55       0.000000       0.000000       0.000000       0.000000
 65894.43       0.000000       0.000000       0.000000       0.000000
 65943.30       0.000000       0.000000       0.000000       0.000000
 65992.18       0.000000       0.000000       0.000000       0.000000
 66041.06       0.000000       0.000000       0.000000       0.000000
 66089.93       0.000000       0.000000       0.000000       0.000000
 66138.81       0.000000       0.000000       0.000000       0.000000
 66187.68       0.000000       0.000000       0.000000       0.000000
 66236.56       0.000000       0.000000       0.000000       0.000000
 66285.43       0.000000       0.000000       0.000000       0.000000
 66334.31       0.000000       0.000000       0.000000       0.000000
 66383.19       0.000000       0.000000       0.000000       0.000000
 66432.06       0.000000       0.000000       0.000000       0.000000
 66480.94       0.000000       0.000000       0.000000       0.000000
 66529.81       0.000000       0.000000       0.000000       0.000000
 66578.69       0.000000       0.000000       0.000000       0.000000
 66627.57       0.000000       0.000000       0.000000       0.000000
 66676.44       0.000000       0.000000       0.000000       0.000000
 66725.32       0.000000       0.000000       0.000000       0.000000
 66774.19       0.000000       0.000000       0.000000       0.000000
 66823.07       0.000000       0.000000       0.000000       0.000000
 66871.95       0.000000       0.000000       0.000000       0.000000
 66920.82       0.000000       0.000000       0.000000       0.000000
 66969.70       0.000000       0.000000       0.000000       0.000000
 67018.57       0.000000       0.000000       0.000000       0.000000
 67067.45       0.000000       0.000000       0.000000       0.000000
 67116.32       0.000000       0.000000       0.000000       0.000000
 67165.20       0.000000       0.000000       0.000000       0.000000
 67214.08       0.000000       0.000000       0.000000       0.000000
 67262.95       0.000000       0.000000       0.000000       0.000000
 67311.83       0.000000       0.000000       0.000000       0.000000
 67360.70       0.000000       0.000000       0.000000       0.000000
 67409.58       0.000000       0.000000       0.000000       0.000000
 67458.46       0.000000       0.000000       0.000000       0.000000
 67507.33       0.000000       0.000000       0.000000       0.000000
 67556.21       0.000000       0.000000       0.000000       0.000000
 67605.08       0.000000       0.000000       0.000000       0.000000
 67653.96       0.000000       0.000000       0.000000       0.000000
 67702.83       0.000000       0.000000       0.000000       0.000000
 67751.71       0.000000       0.000000       0.000000       0.000000
 67800.59       0.000000       0.000000       0.000000       0.000000
 67849.46       0.000000       0.000000       0.000000       0.000000
 67898.34       0.000000       0.000000       0.000000       0.000000
 67947.21       0.000000       0.000000       0.000000       0.000000
 67996.09       0.000000       0.000000       0.000000       0.000000
 68044.97       0.000000       0.000000       0.000000       0.000000
 68093.84       0.000000       0.000000       0.000000       0.000000
 68142.72       0.000000       0.000000       0.000000       0.000000
 68191.59       0.000000       0.000000       0.000000       0.000000
 68240.47       0.000000       0.000000       0.000000       0.000000
 68289.35       0.000000       0.000000       0.000000       0.000000
 68338.22       0.000000       0.000000       0.000000       0.000000
 68387.10       0.000000       0.000000       0.000000       0.000000
 68435.97       0.000000       0.000000       0.000000       0.000000
 68484.85       0.000000       0.000000       0.000000       0.000000
 68533.72       0.000000       0.000000       0.000000       0.000000
 68582.60       0.000000       0.000000       0.000000       0.000000
 68631.48       0.000000       0.000000       0.000000       0.000000
 68680.35       0.000000       0.000000       0.000000       0.000000
 68729.23       0.000000       0.000000       0.000000       0.000000
 68778.10       0.000000       0.000000       0.000000       0.000000
 68826.98       0.000000       0.000000       0.000000       0.000000
 68875.86       0.000000       0.000000       0.000000       0.000000
 68924.73       0.000000       0.000000       0.000000       0.000000
 68973.61       0.000000       0.000000       0.000000       0.000000
 69022.48       0.000000       0.000000       0.000000       0.000000
 69071.36       0.000000       0.000000       0.000000       0.000000
 69120.23       0.000000       0.000000       0.000000       0.000000
 69169.11       0.000000       0.000000       0.000000       0.000000
 69217.99       0.000000       0.000000       0.000000       0.000000
 69266.86       0.000000       0.000000       0.000000       0.000000
 69315.74       0.000000       0.000000       0.000000       0.000000
 69364.61       0.000000       0.000000       0.000000       0.000000
 69413.49       0.000000       0.000000       0.000000       0.000000
 69462.37       0.000000       0.000000       0.000000       0.000000
 69511.24       0.000000       0.000000       0.000000       0.000000
 69560.12       0.000000       0.000000       0.000000       0.000000
 69608.99       0.000000       0.000000       0.000000       0.000000
 69657.87       0.000000       0.000000       0.000000       0.000000
 69706.74       0.000000       0.000000       0.000000       0.000000
 69755.62       0.000000       0.000000       0.000000       0.000000
 69804.50       0.000000       0.000000       0.000000       0.000000
 69853.37       0.000000       0.000000       0.000000       0.000000
 69902.25       0.000000       0.000000       0.000000       0.000000
 69951.12       0.000000       0.000000       0.000000       0.000000
 70000.00       0.000000       0.000000       0.000000       0.000000